NO_OF_SAMPLES	4800
TOT_NO_OF_CHAN	4
FREQUENCY	960.000000
NO_OF_CALC_CHAN	0
TIME_STAMP	2020-02-08, 11:45:40	227818.57981040
FIRST_SAMPLE	1
DESCRIPTION	--
DATA_INCLUDED	Analog
CHANNEL_NAMES	Vastus Lateralis	Vastus Medialis	Tibialis Anterior	Lateral Gastroc
CHANNEL_GAIN	1	1	1	1
FP_LOCATION
FP_CAL
FP_GAIN
Vastus Lateralis	Vastus Medialis	Tibialis Anterior	Lateral Gastroc	
-0.001068	0.019379	0.011139	-0.013275	
0.002899	0.024261	0.013275	-0.006256	
0.005646	0.012970	0.008392	-0.002899	
0.028534	0.019379	0.012970	0.001678	
0.046540	0.030975	0.009308	-0.008087	
0.063020	0.042573	0.010529	-0.007172	
0.058442	0.059358	0.006866	-0.005035	
0.030975	0.066377	0.003204	-0.004425	
-0.009613	0.050813	0.010529	-0.007172	
-0.056306	0.020294	0.012054	-0.005951	
-0.092317	-0.016937	0.022736	-0.001984	
-0.091096	-0.070039	0.027008	-0.008392	
-0.059358	-0.083467	0.019073	-0.001373	
-0.056001	-0.079804	-0.007782	-0.012054	
-0.045625	-0.059358	0.009308	-0.004425	
-0.040437	-0.054170	0.002899	-0.015411	
-0.001984	-0.021210	0.010529	-0.005646	
0.008698	-0.010223	0.004120	-0.013885	
0.018463	0.000153	0.012665	-0.009918	
0.004730	0.002289	0.013275	-0.012054	
-0.011139	0.006561	0.003815	-0.017548	
-0.011749	-0.001373	0.004120	-0.017853	
-0.014801	-0.003510	0.004730	-0.012054	
-0.001984	-0.008392	0.010529	-0.003204	
0.019989	0.006561	0.004425	-0.005035	
0.020599	0.030975	0.006561	-0.001373	
0.031281	0.030975	0.007172	-0.005646	
0.040742	0.034028	0.012665	-0.009003	
0.030060	0.036469	0.014191	-0.003815	
0.004730	0.035249	0.016327	0.002289	
-0.020294	0.026398	0.004730	-0.000763	
-0.016022	0.022430	0.004730	0.005341	
-0.037690	0.010529	0.001678	-0.005035	
-0.036164	0.004730	0.005951	-0.003204	
-0.037080	-0.008392	-0.000153	-0.010223	
-0.021210	-0.004120	-0.001678	-0.003510	
-0.009918	-0.004425	-0.000153	-0.005951	
0.011139	-0.007172	0.019989	-0.005035	
0.023041	-0.014191	0.039216	-0.006866	
0.030670	-0.015106	0.027008	-0.006866	
0.030060	-0.006866	0.019073	-0.003510	
0.015717	-0.006866	0.016022	-0.009003	
0.005646	-0.009308	-0.003204	-0.011749	
-0.004425	-0.013885	-0.012360	-0.017548	
0.004425	-0.005951	0.025177	-0.009003	
-0.009613	-0.009308	0.061494	-0.007477	
-0.002899	-0.008392	0.036775	-0.003204	
-0.002899	0.001678	-0.028229	-0.007782	
0.010223	0.024567	-0.024567	0.000153	
0.014191	0.046540	-0.021820	-0.001373	
0.019989	0.048371	-0.015106	0.000763	
0.008698	0.027008	-0.014496	-0.004425	
-0.004425	0.012360	-0.024261	-0.001373	
-0.039216	-0.006256	-0.021820	-0.003510	
-0.055390	-0.010223	0.044404	0.001068	
-0.057221	-0.024261	0.032197	-0.003510	
-0.077973	-0.057832	-0.047761	-0.009308	
-0.066377	-0.048066	0.005951	-0.011749	
-0.037690	-0.028534	0.016022	-0.016022	
-0.014801	-0.015106	0.027924	-0.012054	
-0.013275	-0.004120	0.023041	-0.014496	
-0.006256	-0.002899	0.028534	-0.011749	
-0.006866	0.005035	0.034944	-0.009613	
0.004730	0.010223	0.047761	-0.003510	
0.005951	-0.003204	0.012054	-0.013275	
0.012665	0.013885	-0.019989	-0.009613	
0.012054	0.018463	-0.020599	-0.019379	
0.019989	0.028534	0.002594	-0.010223	
0.016327	0.025787	0.027924	-0.015106	
0.027008	0.039216	0.080720	-0.008087	
0.030975	0.040132	0.040132	-0.011139	
0.050508	0.048066	-0.021515	-0.003510	
0.042878	0.040742	-0.011749	-0.009613	
0.015106	0.034638	-0.009003	-0.009308	
-0.006866	0.027924	-0.004120	-0.002899	
-0.028229	0.001678	-0.015717	-0.006866	
-0.043489	-0.012970	-0.011444	-0.008392	
-0.044099	-0.039826	-0.012360	-0.011444	
-0.043183	-0.055390	-0.004425	-0.005035	
-0.051423	-0.045625	0.002594	-0.006866	
-0.023346	-0.019989	0.016937	-0.001984	
-0.002289	-0.008392	0.031587	-0.003510	
-0.002289	-0.004120	0.036469	0.003204	
-0.002899	0.000153	-0.004425	-0.005646	
0.013275	0.007172	-0.033113	-0.005646	
0.017242	0.009003	-0.009003	-0.003510	
0.028839	0.020294	0.011139	0.000458	
0.027924	0.016022	0.030365	-0.003510	
0.032807	0.016022	0.024567	-0.004425	
0.019073	0.026703	-0.009308	-0.003510	
-0.006256	0.031281	0.003815	-0.007172	
-0.026093	0.020599	0.006256	-0.006256	
-0.033113	0.010223	0.003204	-0.005646	
-0.035249	0.001068	0.008698	-0.001984	
-0.037080	-0.016327	0.008698	-0.002899	
-0.039216	-0.020905	0.016022	0.003204	
-0.048371	-0.017548	0.009003	-0.004120	
-0.034333	-0.012970	0.010834	-0.007172	
-0.025482	-0.023651	0.000763	-0.012054	
-0.009918	-0.023651	-0.000153	-0.005951	
-0.010223	-0.023956	-0.005646	-0.012970	
0.004730	-0.010834	0.013275	-0.006256	
0.021210	0.006256	0.030670	-0.010223	
0.030060	0.029144	0.049287	-0.007477	
0.025177	0.036164	0.047151	-0.010529	
0.022125	0.047151	0.051423	-0.003204	
0.018158	0.045014	0.003204	-0.004425	
0.016937	0.030365	-0.049897	0.002289	
0.023956	0.023041	0.012970	0.005951	
0.020599	0.020905	0.054475	-0.000763	
0.013885	0.025787	0.048371	-0.009308	
-0.009003	0.020905	0.037690	-0.009918	
-0.031892	0.013275	-0.004120	-0.005951	
-0.051423	-0.014191	-0.098116	-0.012970	
-0.040437	-0.027313	-0.027618	-0.004120	
-0.037690	-0.023651	-0.015106	-0.005646	
-0.020294	-0.014801	0.005341	-0.005035	
-0.013885	-0.004120	-0.022430	-0.006256	
-0.002289	0.014496	-0.009918	0.001068	
0.013885	0.026703	0.004425	-0.005951	
0.028229	0.043183	0.009003	-0.014496	
0.032197	0.034333	0.045014	-0.015717	
0.028229	0.019989	0.016632	-0.009918	
0.014801	0.003204	0.066377	-0.012054	
0.007782	-0.004120	0.067903	-0.013580	
-0.003204	-0.011444	0.003204	-0.017242	
-0.011749	-0.019073	-0.009918	-0.013275	
-0.018158	-0.017853	0.002289	-0.003815	
-0.033418	-0.037690	-0.014496	-0.003815	
-0.041657	-0.061494	-0.006866	0.001984	
-0.051118	-0.074006	-0.000153	-0.000763	
-0.035554	-0.059052	0.001984	0.000458	
-0.016022	-0.027313	-0.002899	-0.010529	
0.006561	0.003204	0.013275	-0.003204	
0.005646	0.019989	0.004730	-0.004425	
0.006256	0.037080	-0.009003	0.002289	
0.005951	0.019379	-0.013580	-0.013275	
0.024872	0.020599	-0.011139	-0.009003	
0.028839	0.031281	-0.005341	-0.015717	
0.020599	0.037385	0.027924	-0.016327	
0.020599	0.023956	0.027924	-0.010529	
0.026398	0.029755	-0.001068	-0.009308	
-0.007477	0.011749	0.024261	-0.010223	
-0.045320	-0.025482	0.030365	-0.001984	
-0.039826	-0.046540	0.016327	0.002899	
-0.028839	-0.052339	0.025482	0.003815	
-0.015717	-0.034333	0.040437	0.002899	
-0.013275	-0.015411	0.008392	0.000153	
-0.008087	0.011139	0.005341	0.003815	
-0.017242	0.016022	0.024261	-0.004120	
-0.003204	0.018768	0.038606	-0.005035	
0.018463	0.023346	0.023041	-0.015106	
0.037995	0.049897	0.008392	-0.002899	
0.025787	0.030975	0.005341	-0.007782	
0.020599	0.013885	0.012054	-0.003204	
0.006561	0.006561	-0.001373	-0.002289	
-0.008392	0.001984	-0.002899	-0.006256	
-0.002899	-0.006256	0.006866	-0.004120	
-0.007782	-0.003815	0.001984	-0.012054	
-0.030060	0.020905	0.007782	-0.006866	
-0.052949	0.037995	0.002289	-0.011749	
-0.060273	0.044709	0.005341	-0.006256	
-0.074311	0.035249	-0.001373	-0.008087	
-0.061799	0.024872	0.005035	-0.005951	
-0.043183	-0.000153	0.004120	-0.010529	
-0.007172	-0.006256	0.005951	-0.007172	
0.026703	-0.008392	0.007782	-0.001984	
0.030365	-0.014191	0.005341	-0.001373	
0.022430	-0.012970	0.002594	-0.001373	
0.016632	-0.005035	0.006561	0.000153	
0.010834	-0.003815	0.008087	-0.005951	
0.009003	-0.001373	0.005951	-0.003204	
0.009003	-0.009003	0.007782	-0.007477	
0.012054	-0.006866	0.009918	-0.005035	
0.012665	-0.003510	0.008698	-0.008392	
0.020599	0.007172	0.009003	-0.013885	
0.030670	0.010834	0.005951	-0.005341	
0.042878	0.023956	-0.000153	-0.010529	
0.056916	0.040742	-0.005341	-0.014496	
0.040132	0.052033	-0.003204	-0.016632	
0.012360	0.046540	0.011139	-0.016327	
-0.010834	0.033113	0.010223	-0.019379	
-0.029449	0.027924	0.010223	-0.011749	
-0.051728	-0.011749	0.021210	-0.012970	
-0.058137	-0.034333	0.022736	-0.001373	
-0.059663	-0.048676	0.010834	-0.010529	
-0.055085	-0.033113	0.011749	0.005341	
-0.068208	-0.051118	-0.001678	-0.005951	
-0.049287	-0.049592	0.008698	-0.010529	
-0.027008	-0.037080	0.012054	-0.006256	
-0.011749	-0.021515	0.003204	-0.003510	
-0.001068	-0.010223	0.012665	-0.002289	
0.001984	-0.004120	0.002899	0.003204	
-0.003815	-0.008392	0.001678	0.004120	
-0.006256	-0.005035	-0.015411	-0.001678	
0.000458	0.001678	0.011139	0.000763	
-0.000763	-0.000153	-0.003510	0.002899	
0.012665	0.010223	0.010223	0.004120	
0.016937	0.011749	-0.000763	-0.009613	
0.024872	0.020599	-0.012360	-0.007477	
0.024261	0.014801	-0.003204	-0.010223	
0.041047	0.033113	0.048676	0.002899	
0.033113	0.034638	0.093232	-0.003204	
0.033723	0.040742	0.044404	-0.002899	
0.004425	0.025787	-0.023346	-0.005951	
-0.023651	0.034333	-0.012054	-0.011749	
-0.027008	0.026703	0.012970	-0.013580	
-0.029755	0.012360	-0.012360	-0.014496	
-0.031281	0.010223	-0.031892	-0.012054	
-0.034944	-0.012970	-0.015411	-0.006256	
-0.036469	-0.032197	-0.003815	-0.003815	
-0.022430	-0.023651	0.016937	-0.009613	
0.004120	-0.001373	0.040132	-0.009003	
0.014191	0.005035	0.029449	-0.016022	
0.017853	0.016022	0.021210	-0.007782	
0.012360	0.016327	0.020294	-0.005035	
0.010834	0.018463	0.010223	-0.002899	
-0.005646	0.005035	-0.005646	-0.014496	
-0.005951	-0.006866	0.002289	-0.017242	
-0.005646	-0.006866	0.000153	-0.014496	
-0.001678	-0.005646	-0.004425	-0.010223	
-0.005951	-0.011444	0.000458	-0.007172	
-0.012054	-0.003204	0.040742	-0.006256	
-0.020905	-0.006866	0.022430	-0.015717	
-0.017853	-0.001984	-0.016022	-0.016632	
-0.016022	0.004425	0.008087	-0.006866	
-0.000153	0.015106	0.016327	-0.007172	
0.021210	0.037080	0.014496	-0.010223	
0.045930	0.038911	0.019073	-0.005035	
0.049287	0.031892	0.019379	-0.001984	
0.028229	0.024567	0.008087	0.001984	
0.017242	0.019379	0.010529	0.002899	
-0.015411	0.005951	-0.005646	-0.003510	
-0.036164	0.003815	-0.001068	0.001678	
-0.040132	-0.023346	-0.011749	-0.002289	
-0.043489	-0.048066	-0.027008	-0.000763	
-0.052033	-0.057832	0.001678	-0.004425	
-0.041352	-0.045930	0.005341	-0.003510	
-0.044099	-0.036164	-0.007782	-0.000763	
-0.039826	-0.035859	0.024872	-0.001984	
-0.021210	-0.029449	0.061799	-0.005646	
0.005646	-0.000763	0.047151	0.002289	
0.032502	0.023041	0.015411	-0.002899	
0.054475	0.038911	0.007172	-0.004425	
0.053864	0.048066	-0.027008	-0.008087	
0.034638	0.043489	-0.015411	-0.007477	
0.006866	0.037995	0.007782	-0.009003	
-0.027008	0.016327	0.008698	-0.012054	
-0.055085	0.000458	0.012970	-0.004425	
-0.055696	-0.030975	0.001068	-0.016327	
-0.059358	-0.048371	0.006866	-0.011444	
-0.063935	-0.058442	0.005951	-0.020294	
-0.025177	-0.031587	0.007172	-0.012360	
0.004730	-0.011139	0.002289	-0.013885	
0.021210	0.006866	0.007172	-0.008392	
0.014801	0.012970	0.002594	-0.011139	
0.016022	0.020599	-0.002289	-0.003510	
0.028534	0.022736	-0.000153	-0.005646	
0.032197	0.038911	0.001984	-0.002899	
0.019073	0.048371	0.004730	0.002289	
0.005646	0.033113	0.006256	-0.000763	
-0.005951	0.009308	0.007782	-0.005341	
-0.003204	-0.007782	0.006561	-0.008392	
0.020599	0.004425	0.012054	-0.001984	
0.020294	-0.001984	0.009003	-0.003510	
0.026398	-0.000763	0.011749	0.002899	
0.028534	0.004425	0.008698	-0.003815	
0.010834	0.010529	0.017853	0.002594	
-0.022430	-0.000763	0.009918	-0.005646	
-0.038301	0.000153	0.011749	-0.009003	
-0.067903	-0.008392	0.008698	-0.012970	
-0.063630	-0.009613	0.012054	-0.002899	
-0.068513	-0.025787	0.007172	-0.005951	
-0.070039	-0.029755	0.007172	-0.003204	
-0.043183	-0.017242	0.010834	-0.005035	
-0.013275	-0.001373	0.012665	-0.007172	
0.012665	0.009918	0.016937	-0.003510	
0.024872	0.016632	0.013275	-0.005951	
0.027313	0.024872	0.009003	-0.004120	
0.023651	0.030670	0.007172	-0.009918	
0.026093	0.040132	0.027924	0.000153	
-0.008087	-0.000763	0.016327	-0.012054	
-0.008392	-0.000153	0.019073	-0.014191	
-0.007477	-0.002899	0.036164	-0.013580	
-0.009918	-0.006256	0.026093	-0.012054	
-0.019073	-0.005341	-0.013885	-0.020294	
-0.003510	0.011749	0.016937	-0.001984	
-0.002899	0.009003	-0.006866	-0.014191	
0.010834	0.013885	-0.036164	-0.011749	
0.004425	0.013885	-0.018158	-0.009918	
0.012054	0.020599	0.020294	-0.000763	
0.022125	0.030365	-0.007477	0.000763	
0.030670	0.040437	0.008698	-0.008087	
0.027008	0.037995	-0.011444	-0.017853	
0.013275	0.033113	-0.060884	-0.015717	
0.002594	0.034028	-0.027924	-0.007477	
-0.009308	0.016022	0.031281	-0.001373	
-0.022430	0.000458	0.066682	0.000763	
-0.036164	-0.025482	0.034333	-0.009308	
-0.050508	-0.046540	0.028839	-0.003815	
-0.051423	-0.052644	0.007782	-0.017853	
-0.025787	-0.021210	0.007172	-0.014496	
-0.016327	-0.015411	0.032502	-0.018463	
-0.006866	-0.013580	0.007172	-0.017548	
-0.011749	-0.012970	-0.033723	-0.016632	
0.005035	-0.001373	-0.034333	-0.005951	
0.028839	0.016022	-0.034333	-0.001984	
0.035249	0.020905	-0.027313	0.008087	
0.046235	0.018768	-0.011444	0.001984	
0.046235	0.029755	0.022125	-0.003204	
0.034333	0.032197	0.073091	-0.001984	
0.012665	0.022736	0.059052	-0.000763	
-0.005035	0.014801	0.054780	-0.002899	
-0.023346	-0.000153	0.042573	-0.002899	
-0.042268	-0.017548	0.019989	0.005035	
-0.060578	-0.041047	-0.002899	-0.004425	
-0.047761	-0.037995	0.008087	-0.005646	
-0.039216	-0.039521	-0.003510	-0.011444	
-0.016937	-0.029449	0.002899	-0.004425	
-0.001068	-0.007477	0.009003	-0.003204	
0.009918	0.004730	0.009003	-0.004425	
0.001068	0.007782	0.005951	-0.014191	
-0.008392	0.016327	0.003815	-0.010529	
-0.011139	0.022125	0.001678	-0.013275	
0.002899	0.049287	0.005341	-0.005035	
0.004425	0.035249	0.005035	-0.006866	
-0.011444	0.010223	0.004425	-0.011444	
-0.009308	0.007782	0.000458	-0.012970	
-0.019684	-0.009308	0.001068	-0.011139	
-0.045930	-0.023651	0.007172	-0.006256	
-0.065156	-0.039826	0.005341	-0.004425	
-0.036164	-0.030975	0.010529	-0.002899	
0.007782	-0.037385	0.009003	-0.005951	
0.002289	-0.046235	0.009308	-0.011139	
-0.017548	-0.052644	0.005951	-0.010223	
-0.012360	-0.034333	0.009308	-0.001984	
0.007782	0.000763	0.007782	-0.005951	
0.045014	0.025787	0.010223	-0.001678	
0.072785	0.037385	0.009308	-0.003204	
0.084382	0.058137	0.011749	-0.005341	
0.065156	0.057527	0.006866	-0.011139	
0.046540	0.058747	0.012665	0.001678	
-0.001068	0.030670	0.010834	-0.001984	
-0.023041	0.016327	0.011139	-0.005646	
-0.049897	0.001984	0.008698	-0.009308	
-0.059358	-0.020905	0.012054	-0.001373	
-0.056306	-0.017853	0.016937	0.002899	
-0.053864	-0.017242	0.004730	-0.005646	
-0.042878	-0.016022	0.008698	-0.002899	
-0.031892	-0.011749	0.005951	-0.006256	
-0.023651	-0.002899	0.001678	-0.000763	
-0.015106	-0.005341	-0.009613	-0.006866	
0.014801	0.014801	0.004425	-0.007782	
0.012970	0.028229	-0.002899	-0.016327	
0.010834	0.034944	0.022736	-0.011749	
0.004120	0.024872	0.039216	-0.015106	
0.001984	0.028229	0.051423	-0.005035	
-0.011749	0.019379	0.000458	-0.007172	
-0.023346	0.009003	-0.007172	-0.007477	
-0.023346	-0.009308	-0.013885	-0.008392	
-0.005951	-0.012970	0.002899	-0.007172	
0.017853	-0.000153	0.002899	-0.007782	
0.027008	0.011749	0.004425	-0.007477	
0.015106	0.004120	0.002289	-0.004425	
0.003204	0.000763	0.000458	-0.007172	
0.009613	0.023956	0.007172	-0.001678	
0.013275	0.020294	0.002594	-0.003510	
0.036775	0.028534	0.008392	0.001068	
0.048982	0.036164	0.018158	-0.004425	
0.045014	0.045320	0.036775	0.001678	
0.016632	0.030975	0.026398	-0.012054	
-0.003815	0.029144	0.001678	-0.008392	
-0.038911	0.004120	-0.041657	-0.017242	
-0.043794	-0.003204	-0.045320	-0.013885	
-0.028229	-0.007172	-0.014191	-0.009003	
-0.028839	-0.030060	0.016022	0.002594	
-0.036469	-0.038606	0.063020	0.011444	
-0.052949	-0.046540	0.103914	0.010834	
-0.064240	-0.052033	0.009918	-0.005341	
-0.051118	-0.052644	-0.123140	-0.017853	
-0.021210	-0.033113	-0.038301	-0.014191	
-0.015106	-0.023956	-0.008392	-0.012360	
0.000763	-0.010223	0.005951	-0.007782	
0.001678	-0.013275	0.043489	-0.011749	
0.005951	0.007172	0.091706	-0.003204	
0.007782	0.012360	0.042878	-0.006256	
0.019989	0.017853	-0.044404	-0.008392	
0.016632	0.022736	0.005951	-0.014191	
0.017853	0.022736	0.044709	-0.013580	
0.017242	0.012054	0.025482	-0.012360	
0.017242	0.011749	0.024872	-0.008392	
0.014801	0.012970	0.021515	-0.012054	
0.013275	0.026398	0.011749	-0.000763	
-0.005035	0.030975	0.004425	-0.000153	
-0.020905	0.012970	-0.002289	-0.004120	
-0.019684	0.008087	0.000458	-0.003204	
-0.019379	-0.001373	0.002899	0.000153	
-0.023346	-0.012360	0.000458	-0.003510	
-0.015411	-0.017548	-0.001984	-0.006866	
-0.003510	-0.006866	0.005035	-0.009918	
-0.001373	0.001984	0.004425	-0.012054	
-0.003204	0.017853	0.001068	-0.013580	
-0.017548	0.018768	-0.008392	-0.018463	
-0.015717	0.020905	-0.003204	-0.012970	
-0.006256	0.023956	0.004425	-0.011749	
0.001984	0.014496	0.010529	-0.012054	
-0.009918	-0.015717	0.014191	-0.011139	
-0.015411	-0.010834	0.041352	-0.002899	
-0.013885	-0.006256	0.009308	-0.015411	
-0.003204	0.000153	-0.002899	-0.011139	
-0.015717	-0.005646	0.009918	-0.016327	
-0.005035	-0.001068	0.006256	-0.003510	
-0.021820	-0.017242	0.016022	-0.009918	
-0.049897	-0.030975	0.048371	-0.013885	
-0.039216	-0.019379	0.030670	-0.007172	
-0.021210	-0.027313	-0.038301	-0.012360	
-0.007782	-0.026093	-0.047456	-0.003510	
-0.015717	-0.028534	-0.019684	-0.005951	
0.007782	0.003204	0.004120	0.000763	
0.018768	0.012360	0.009003	-0.005951	
0.032502	0.029755	0.008698	0.000153	
0.030060	0.025177	0.003815	-0.004425	
0.042268	0.040437	0.009308	0.005951	
0.035859	0.035249	0.010223	0.000763	
0.025787	0.026703	0.015411	-0.006256	
0.010223	0.018158	0.018158	-0.008392	
0.018768	0.028839	0.017242	-0.003204	
0.013275	0.020294	0.005341	-0.009308	
0.001678	0.007172	-0.003204	-0.007782	
-0.010223	0.005035	-0.001068	-0.009918	
-0.016022	-0.000763	-0.003510	-0.011749	
-0.009613	-0.000763	0.005341	0.000458	
-0.021210	-0.011444	0.024567	-0.001678	
-0.023956	-0.025787	0.053559	0.002899	
-0.033418	-0.039521	0.043183	-0.011139	
-0.033418	-0.032197	0.007782	-0.003510	
-0.048371	-0.025482	0.000153	-0.003510	
-0.041047	-0.010834	-0.008392	0.006561	
-0.031892	-0.027008	0.002289	0.004425	
-0.020905	-0.025177	0.003204	0.001068	
0.000763	-0.011444	-0.001678	-0.009003	
0.034028	0.013275	0.001068	-0.004425	
0.036164	0.028534	0.021210	-0.015411	
0.022736	0.033113	-0.001678	-0.007477	
0.010529	0.038911	0.000153	-0.006866	
-0.011444	0.050202	0.010223	-0.006866	
-0.034028	0.041963	0.007782	-0.006866	
-0.045625	0.008087	0.008698	-0.002899	
-0.059052	-0.001984	0.011749	-0.001678	
-0.096590	-0.022430	0.005341	-0.010529	
-0.103304	-0.049897	0.012665	-0.016022	
-0.062409	-0.046235	0.009308	-0.016327	
0.001678	-0.022125	0.014801	-0.011139	
0.032502	-0.007782	0.011139	-0.015106	
0.069123	0.003815	0.018463	-0.013580	
0.062715	-0.001068	0.012665	-0.017548	
0.074922	0.009918	0.012054	-0.009308	
0.086213	0.022125	0.010223	-0.008392	
0.067903	0.024567	0.005951	-0.004120	
0.045320	0.013885	-0.003815	-0.010223	
0.037080	0.028229	0.000458	-0.008087	
0.029755	0.038911	0.001984	-0.012970	
0.027008	0.042268	0.001068	-0.005035	
0.000458	0.036164	0.001068	-0.003204	
-0.037690	0.018768	0.005035	-0.011749	
-0.046235	0.008087	0.010529	-0.008392	
-0.049592	0.005035	0.008392	-0.017853	
-0.013275	-0.001373	0.025177	-0.011139	
-0.004120	0.000153	0.023041	-0.014191	
-0.008087	0.013275	0.022736	-0.011444	
-0.019073	0.011749	-0.011749	-0.017853	
-0.032197	0.018158	-0.026093	-0.011444	
-0.055085	0.008087	-0.019989	-0.016022	
-0.067597	-0.012360	-0.001068	-0.006256	
-0.055390	-0.029449	0.024872	-0.004120	
-0.054170	-0.023651	0.062715	0.000458	
-0.034028	-0.023651	0.069428	-0.001068	
-0.012054	-0.004120	0.002899	0.006256	
-0.007782	0.002899	-0.015106	0.001678	
0.014191	0.009308	0.050508	0.008698	
0.028534	0.015106	0.025177	0.008087	
0.027924	0.010834	-0.063020	0.005035	
0.019684	0.005646	0.012970	0.000153	
0.001984	-0.009308	0.001984	-0.003204	
-0.017548	-0.020905	-0.011749	0.003815	
-0.022430	-0.023651	-0.003815	-0.003815	
-0.002289	-0.007172	0.010529	-0.005035	
0.021210	0.000153	-0.023346	-0.010529	
0.048371	0.016022	-0.036775	-0.009003	
0.062409	0.029144	-0.002899	-0.014191	
0.068208	0.050202	0.029449	0.001678	
0.044404	0.048371	0.000458	-0.007172	
0.030365	0.061189	-0.033723	-0.003204	
-0.010223	0.051118	-0.022430	-0.005646	
-0.049592	0.017853	0.027008	-0.004425	
-0.063630	-0.032197	0.077058	-0.002899	
-0.068513	-0.052644	0.063630	-0.000763	
-0.061494	-0.059968	0.004730	-0.008087	
-0.051423	-0.056306	-0.015411	-0.007477	
-0.045625	-0.048676	-0.007172	-0.003510	
-0.023651	-0.009918	-0.012360	-0.014496	
0.004730	0.058137	0.008698	-0.014191	
0.017242	0.043183	0.014191	-0.017853	
0.028534	0.004730	0.037385	-0.009308	
0.024567	0.003815	0.082551	-0.009918	
0.026703	0.011139	0.050813	-0.003510	
0.027313	0.027008	-0.020294	-0.003510	
0.020294	0.034028	-0.007172	-0.001984	
-0.015717	0.009003	0.018768	-0.010223	
-0.045014	-0.029144	0.012360	-0.006256	
-0.068208	-0.058137	0.009918	-0.011444	
-0.034333	-0.043794	0.006256	-0.001984	
0.017242	-0.019073	0.002594	-0.001678	
0.032197	0.004120	0.006866	0.001068	
0.015717	0.016327	0.002899	0.005035	
0.006561	0.031892	-0.005341	-0.001678	
0.002899	0.027008	0.005951	-0.001678	
-0.009308	0.010834	0.015411	-0.003510	
-0.015717	0.005646	0.022125	-0.006256	
-0.019379	-0.008392	0.021210	-0.016327	
0.004425	-0.001984	0.031281	-0.012054	
0.002899	0.003815	0.022125	-0.017242	
-0.008392	0.003204	-0.000763	-0.014496	
-0.009308	-0.002899	-0.015717	-0.016022	
0.000763	0.030975	-0.025177	-0.007782	
-0.009308	0.056611	-0.008392	-0.000763	
-0.010223	0.050508	-0.011444	0.007172	
-0.018158	0.022430	-0.012360	0.003815	
-0.027924	0.005646	0.028839	-0.005035	
-0.032197	0.004425	-0.002289	-0.011444	
-0.020294	-0.012360	-0.023651	-0.008087	
-0.005646	-0.023041	-0.015411	-0.005035	
0.003815	-0.033113	-0.020294	0.000153	
-0.026093	-0.054170	-0.008087	0.007172	
-0.059968	-0.080415	-0.027618	-0.001373	
-0.023346	-0.065461	-0.006866	0.004120	
0.005035	-0.021515	0.001068	-0.001373	
0.024872	0.018768	0.037690	0.002594	
0.008087	0.014496	0.039216	-0.008392	
0.013275	0.028534	0.028534	-0.007782	
0.016937	0.038301	0.020294	-0.011139	
0.028534	0.041963	0.032197	-0.008392	
0.038301	0.045014	0.027924	-0.016327	
0.042268	0.051118	0.022125	-0.013275	
0.042268	0.039826	0.022125	-0.009918	
0.037690	0.028839	0.020294	-0.005646	
0.026703	0.022430	0.018768	-0.003510	
0.002594	0.016937	0.017853	-0.005646	
-0.006866	0.000458	0.014191	-0.003510	
-0.034028	-0.018463	0.007172	-0.009308	
-0.045625	0.000458	0.009003	-0.011139	
-0.044404	-0.002289	0.007782	-0.017548	
-0.027618	-0.009003	0.012665	-0.014191	
-0.044099	-0.019684	0.010223	-0.013885	
-0.049592	-0.002289	0.010529	-0.010223	
-0.039826	0.002594	0.008698	-0.010223	
-0.033723	0.000153	0.009308	-0.012054	
-0.033418	0.001678	-0.001068	-0.023346	
-0.011444	0.011749	0.006866	-0.010223	
-0.005341	0.007782	0.005035	-0.016632	
0.001984	0.005646	0.012665	-0.012970	
0.005951	0.005035	0.001984	-0.011749	
0.016327	0.014496	-0.009308	-0.008392	
0.014801	0.005035	-0.007477	-0.003510	
0.009003	-0.009918	-0.004425	-0.005035	
0.013275	-0.009003	-0.011749	-0.000763	
0.015717	-0.005341	-0.008087	-0.002289	
0.033723	0.011749	0.047761	-0.002899	
0.033723	0.018158	0.057221	-0.005646	
0.024261	0.019073	0.002594	-0.006866	
-0.000153	0.013275	-0.000153	-0.009308	
-0.017853	-0.003204	-0.001678	-0.006256	
-0.020294	-0.008087	-0.011749	-0.011444	
-0.016022	0.012360	0.001678	-0.000153	
-0.042878	0.009308	-0.000763	-0.009918	
-0.043183	0.004120	0.008087	-0.007172	
-0.036164	-0.007172	0.009308	-0.002289	
-0.034944	-0.021515	0.010223	0.002289	
-0.025787	-0.022430	0.007172	-0.002289	
-0.018463	0.001984	0.003815	-0.009918	
-0.006256	0.013275	-0.011749	-0.010223	
0.006561	0.008698	-0.027008	-0.007477	
-0.012360	0.004730	-0.021820	-0.000763	
-0.028229	-0.002899	-0.022125	-0.005951	
0.006561	-0.000763	0.000458	-0.008087	
0.048371	0.007782	0.031281	-0.006256	
0.059358	0.010223	0.034638	-0.003510	
0.044709	-0.016937	0.024261	-0.010223	
0.023041	-0.045014	0.077668	-0.012054	
0.010834	-0.045930	0.103304	-0.016327	
-0.000153	-0.030975	0.047456	-0.010529	
-0.014191	-0.039521	0.004120	-0.001678	
-0.011749	-0.023651	0.011139	0.005035	
-0.018158	-0.013580	0.034944	0.005035	
-0.036469	-0.014191	0.016632	0.007782	
-0.056916	-0.024261	-0.001678	-0.005951	
-0.037080	-0.015106	-0.032502	-0.007172	
-0.012360	0.009308	-0.052949	-0.008392	
-0.005035	0.024261	-0.017853	-0.012360	
-0.011139	0.026398	-0.003510	-0.014191	
-0.016022	0.018768	-0.004120	-0.016327	
-0.004425	0.023346	0.004730	-0.007782	
0.006256	0.022125	-0.000153	-0.009613	
0.028839	0.035859	0.006561	-0.002289	
0.018463	0.033418	0.000153	-0.011749	
0.006256	0.023346	0.004730	-0.011749	
-0.005951	0.010834	-0.001678	-0.022125	
-0.003815	0.010223	0.005951	-0.015717	
-0.001984	0.005646	0.018768	-0.021515	
-0.005951	0.012970	0.033113	-0.022125	
-0.030060	0.005035	0.031281	-0.022736	
-0.046235	0.000458	0.027008	-0.011444	
-0.049287	-0.019379	0.014191	-0.009308	
-0.035249	-0.013275	0.013275	0.001678	
-0.007477	-0.004120	0.007172	0.012054	
0.010223	-0.005341	-0.051423	0.005951	
0.027008	0.016632	-0.099031	0.006561	
0.029755	0.031892	-0.036164	0.002289	
0.033723	0.048982	0.053254	-0.000153	
0.015106	0.048982	0.014191	-0.009918	
0.012054	0.045930	0.022125	-0.002899	
0.000458	-0.003204	0.024567	-0.010529	
-0.014801	-0.011139	0.032502	-0.003815	
-0.046540	-0.009918	0.042573	-0.009003	
-0.050508	-0.022430	-0.001678	-0.000763	
-0.067292	-0.034944	-0.026398	-0.007477	
-0.053559	-0.037385	0.005035	-0.002899	
-0.042878	-0.043183	0.019989	-0.002289	
-0.025177	-0.034028	0.026093	-0.011139	
-0.002899	-0.026093	0.018768	-0.011139	
0.027008	-0.021210	0.017242	-0.006256	
0.059358	0.000153	0.018463	-0.003815	
0.077058	0.021820	0.013275	-0.012054	
0.065156	0.018768	0.012054	-0.009003	
0.041047	0.028839	0.008698	-0.009003	
0.028534	0.041047	0.011749	-0.005341	
0.016937	0.036469	0.013275	-0.003510	
0.010529	0.037080	0.023041	-0.000763	
-0.021210	0.020294	0.027313	-0.003204	
-0.039216	0.002289	0.022430	0.003204	
-0.054170	-0.020905	-0.009003	-0.004425	
-0.047761	-0.020294	-0.015106	-0.000763	
-0.029755	-0.005341	-0.002289	-0.004425	
-0.006866	0.001984	0.014191	-0.002899	
-0.007782	-0.006256	0.056611	-0.003510	
0.000458	0.003815	0.051728	-0.010223	
0.016937	0.022736	0.008698	-0.008392	
0.016327	0.027008	-0.017242	-0.000763	
0.002289	0.028839	-0.027008	-0.000763	
-0.010834	0.030365	-0.026398	-0.004120	
-0.023956	0.043489	0.001068	-0.008087	
-0.023956	0.037080	0.015411	-0.013275	
-0.003815	0.028839	0.034638	-0.010223	
-0.008087	0.024872	0.007782	-0.015717	
0.011139	0.041963	0.003204	-0.004120	
0.012970	0.015106	0.058747	-0.014191	
0.008087	0.000763	0.055696	-0.001984	
-0.015106	-0.015106	-0.003510	-0.005035	
0.000458	0.000153	-0.026398	0.005951	
0.004120	-0.003510	-0.011444	0.002289	
-0.019684	-0.023041	-0.019684	-0.005646	
-0.049897	-0.041963	-0.063020	-0.013275	
-0.045625	-0.048066	-0.035554	-0.009918	
-0.030975	-0.049592	-0.052033	-0.014191	
-0.009308	-0.041963	-0.055696	-0.013580	
0.007172	-0.023651	-0.048371	-0.005035	
0.008087	-0.014801	0.009003	0.002594	
0.007782	0.001068	0.081025	0.005035	
0.009003	0.008087	0.034638	0.007782	
0.014191	0.016022	0.026398	0.003204	
0.007782	0.016937	0.071565	-0.005035	
0.015717	0.034028	0.089875	0.000153	
0.014496	0.024567	0.086823	-0.014496	
0.029144	0.034333	0.012054	-0.016632	
0.030670	0.036775	0.014496	-0.022125	
0.023041	0.042268	0.028534	-0.018463	
0.008087	0.023041	0.029144	-0.016022	
-0.000153	0.007782	0.019073	-0.009308	
-0.035859	-0.007172	0.009308	-0.009613	
-0.056916	-0.009308	0.000458	-0.006866	
-0.066377	-0.021515	0.001984	-0.003815	
-0.078279	-0.065461	-0.001068	-0.014191	
-0.067292	-0.070344	-0.003510	-0.018158	
-0.037080	-0.045930	-0.004425	-0.012970	
-0.014801	-0.023651	-0.000763	-0.011749	
-0.001678	-0.013885	-0.003510	-0.013275	
0.016022	0.012970	-0.003204	-0.009003	
0.013275	0.016022	-0.011749	-0.017548	
0.029755	0.033113	-0.001678	-0.003815	
0.025787	0.042573	-0.007172	-0.007172	
0.014496	0.058442	-0.002289	0.001984	
-0.001678	0.041047	-0.005035	-0.001678	
-0.017548	0.014496	-0.000153	0.000763	
-0.032502	-0.005035	0.005035	0.005341	
-0.027618	-0.014801	0.006256	0.001984	
-0.014801	-0.023651	-0.000153	-0.006256	
0.019073	-0.001373	0.005951	-0.000763	
0.042878	0.002899	0.007172	-0.007172	
0.047151	0.018768	0.011139	-0.007172	
0.040132	0.023346	0.017242	-0.008087	
0.016327	0.012360	0.021515	-0.009003	
-0.007477	0.007172	0.030060	-0.005951	
-0.017548	-0.003815	0.019073	-0.011749	
-0.015717	-0.001068	0.012054	-0.007172	
-0.026093	-0.008087	-0.000763	-0.009308	
-0.013275	-0.009918	0.004730	-0.008087	
0.006256	-0.005646	0.007172	-0.007172	
0.019073	0.003815	-0.012360	-0.007172	
0.006866	0.000763	-0.019989	-0.012054	
0.001068	0.020905	-0.015106	-0.011139	
-0.015411	0.028229	-0.013885	-0.011139	
-0.017548	0.025787	0.003815	-0.004425	
-0.018158	0.008087	0.010223	-0.010529	
-0.026093	0.008087	0.016632	-0.007477	
-0.036469	0.000763	0.024567	-0.005035	
-0.052949	-0.027313	0.024261	-0.006866	
-0.043794	-0.027313	0.031281	-0.011444	
-0.030975	-0.011749	0.032807	-0.012054	
-0.012360	-0.000153	0.048982	-0.002289	
-0.001678	-0.001373	0.008698	-0.005646	
0.025177	0.006561	-0.017242	-0.001678	
0.032502	0.012054	-0.032502	-0.005646	
0.048066	0.027313	-0.037995	-0.009003	
0.051728	0.041047	-0.000763	-0.007782	
0.026703	0.047151	0.075532	-0.001984	
-0.002289	0.036164	0.091096	0.002899	
-0.023956	0.013275	0.009918	0.001068	
-0.050202	0.002289	-0.016937	-0.003510	
-0.063935	-0.015106	-0.064240	0.005035	
-0.051728	-0.039216	-0.093232	0.010223	
-0.039216	-0.043183	-0.015411	0.004730	
-0.017548	-0.034944	0.059358	0.002899	
0.005646	-0.022430	0.000153	0.006866	
0.008392	-0.014191	0.004730	-0.003204	
0.015106	-0.003204	0.065766	-0.007172	
0.028839	0.012054	0.037080	-0.001373	
0.036469	0.022125	0.015411	-0.005951	
0.056611	0.053254	0.010529	-0.004120	
0.060884	0.093537	0.008392	-0.010223	
0.028839	0.100252	0.018158	-0.008392	
-0.006866	0.038911	0.015411	-0.009918	
-0.036164	-0.001068	0.022125	-0.008392	
-0.107271	-0.034944	0.008392	-0.013580	
-0.120394	-0.066072	0.009308	-0.003204	
-0.077363	-0.090791	0.008392	-0.003204	
-0.013580	-0.099947	0.008392	-0.006256	
0.024872	-0.104525	0.009918	-0.010223	
0.026703	-0.091401	0.004425	-0.009918	
0.021210	-0.078584	0.004120	-0.015106	
0.031281	-0.050202	0.016327	-0.007477	
0.030060	-0.023956	0.005341	-0.016632	
0.016022	0.021820	0.005341	-0.013885	
-0.000153	0.034028	0.019379	-0.009003	
0.000763	0.036775	0.012054	-0.009003	
0.001068	0.037385	0.001068	-0.007477	
0.005035	0.039216	0.013885	-0.010223	
0.027008	0.052033	0.024567	-0.009613	
0.029144	0.056306	-0.031281	-0.014496	
0.034333	0.063630	-0.019989	-0.007477	
0.028229	0.058442	0.030670	-0.012054	
0.026398	0.072175	0.022125	-0.002289	
-0.002289	0.060578	-0.018158	-0.011139	
-0.009308	0.050202	-0.019989	-0.002899	
-0.026398	0.027008	0.006256	-0.009003	
-0.023651	0.008392	0.014191	-0.009918	
-0.009308	0.004425	0.012665	-0.010223	
-0.019989	0.002289	0.007172	-0.003815	
-0.027618	-0.018158	0.009918	-0.002899	
-0.035249	-0.019073	0.009003	-0.009308	
-0.025787	-0.008087	0.012665	-0.007782	
-0.023956	-0.018158	0.008698	-0.011749	
-0.031281	-0.011444	0.012665	-0.009918	
-0.052339	-0.007782	0.011139	-0.011444	
-0.063020	-0.025482	-0.004120	-0.019073	
-0.064240	-0.058137	0.005951	-0.022125	
-0.059358	-0.054170	0.041352	-0.015411	
-0.039216	-0.048676	0.020294	-0.016632	
-0.020294	-0.024872	0.006256	-0.004120	
-0.017548	-0.022430	-0.004120	-0.007172	
-0.008087	-0.012054	0.001984	0.000763	
-0.000153	-0.000763	-0.030365	-0.004425	
0.004120	0.019073	-0.012360	-0.001373	
0.010834	0.019989	0.034333	-0.000153	
0.021820	0.016937	-0.031892	-0.001373	
0.024872	0.022125	-0.021515	-0.003510	
0.017242	0.020599	0.032197	-0.004425	
0.016327	0.028839	0.070039	-0.007172	
0.025787	0.034333	0.031281	-0.011139	
0.051728	0.045014	0.002289	-0.002899	
0.046540	0.043489	-0.003510	-0.007477	
0.053864	0.052033	0.018463	0.001068	
0.027313	0.040437	0.008392	-0.009003	
0.006866	0.039826	0.009918	-0.007477	
-0.007782	0.021820	0.008392	-0.016022	
-0.005341	0.010223	0.023346	0.000763	
-0.015411	-0.014801	0.023041	0.000458	
-0.026093	-0.023956	0.019073	0.004730	
-0.048371	-0.025177	0.013275	0.001068	
-0.033723	-0.017242	0.003815	0.001068	
-0.024872	-0.023651	-0.023346	-0.004120	
-0.042268	-0.042268	-0.092317	-0.005035	
-0.045320	-0.057221	-0.072785	-0.005035	
-0.033418	-0.055085	-0.005341	0.001068	
-0.021820	-0.029449	0.074922	0.005341	
-0.017242	-0.023041	0.075227	0.000763	
-0.001068	-0.004120	0.065156	0.001068	
-0.005341	0.004425	0.001678	-0.013275	
0.010223	0.024872	-0.001068	-0.009918	
0.014496	0.028229	0.058747	-0.012054	
0.044099	0.046540	0.120394	-0.002899	
0.063020	0.056306	0.069123	-0.009003	
0.076142	0.070039	0.010529	-0.005035	
0.063935	0.071259	-0.049592	-0.009613	
0.035249	0.068208	-0.017853	-0.007477	
-0.010834	0.048371	-0.021210	-0.012970	
-0.042878	0.030365	-0.009613	-0.006256	
-0.065766	-0.041963	-0.012970	-0.012054	
-0.082246	-0.089265	-0.023651	-0.010529	
-0.082551	-0.082551	-0.026398	-0.010529	
-0.073091	-0.038301	-0.028229	-0.017548	
-0.039216	-0.014801	0.001068	-0.009918	
-0.007782	-0.011749	0.017242	-0.013580	
0.012054	-0.000763	0.032807	-0.012054	
-0.005951	-0.023346	0.005035	-0.015106	
-0.011139	-0.026398	0.014191	-0.006256	
0.000763	-0.012970	-0.008392	-0.013580	
0.019684	0.025177	-0.001373	-0.003510	
0.009003	0.032197	0.017853	-0.011139	
0.008087	0.039826	0.000153	-0.001984	
-0.007477	0.023956	-0.035554	-0.009308	
-0.005646	0.005035	-0.032197	-0.005341	
-0.013885	-0.016022	-0.003204	-0.011749	
-0.011749	-0.011139	0.025482	-0.013275	
0.006256	0.000153	0.041657	-0.003510	
0.019073	0.001678	0.026093	-0.003815	
0.042268	0.002899	-0.020294	-0.001984	
0.045014	0.020294	-0.014496	-0.008087	
0.028534	0.034028	0.016632	-0.009003	
0.000153	0.022125	0.023041	-0.017242	
-0.019073	0.019073	0.028534	-0.002899	
-0.057221	-0.021515	0.013275	-0.010529	
-0.071259	-0.045320	0.013275	-0.004425	
-0.058137	-0.030975	0.016937	-0.004425	
-0.013885	0.011749	0.024261	0.004120	
-0.016022	0.000763	0.013275	-0.009003	
0.002289	0.005035	0.012665	-0.003510	
0.028839	0.020294	0.006256	-0.005341	
0.052949	0.048982	0.012054	0.000153	
0.037995	0.062409	0.014496	-0.005035	
0.011139	0.065461	0.024872	-0.001678	
-0.016022	0.031281	0.042268	-0.003510	
-0.017853	-0.025177	0.053254	-0.003204	
-0.033723	-0.056001	0.026398	-0.013885	
-0.022125	-0.054170	-0.000153	-0.011444	
-0.013885	-0.040437	-0.001678	-0.007172	
-0.012360	-0.028229	-0.023041	-0.011749	
0.000153	0.009308	-0.009613	-0.003204	
0.002289	0.034638	-0.008392	-0.012970	
-0.002289	0.048371	-0.023956	0.001984	
-0.015717	0.026398	-0.040132	0.000763	
-0.001373	0.044709	0.017853	0.005341	
-0.017242	0.036775	-0.026093	-0.008392	
-0.014801	0.024261	0.001068	-0.005035	
-0.027008	0.000153	0.022736	-0.008087	
-0.036469	-0.021210	0.030365	-0.005646	
-0.013275	-0.053864	0.034333	-0.005646	
0.018463	-0.060578	0.024872	-0.005646	
0.017853	-0.043794	0.009003	-0.009003	
0.019073	-0.023956	0.015411	-0.006256	
0.017853	-0.007172	0.019989	-0.010529	
0.006866	-0.001068	0.007172	-0.015106	
0.005951	0.007782	0.012054	-0.012970	
0.002594	0.012970	0.023346	-0.012360	
0.008087	0.021820	0.034638	-0.008087	
0.005951	0.020294	0.012054	-0.014191	
0.014496	0.049287	0.012054	-0.001678	
0.011139	0.060884	0.003204	-0.005035	
0.011139	0.038911	0.002289	-0.012054	
0.001984	0.022430	0.002899	-0.010529	
0.017853	0.037385	-0.002289	-0.003510	
0.025177	0.042878	0.004730	-0.010529	
0.028534	0.020599	0.023346	-0.004425	
0.023041	0.003815	0.023041	-0.010529	
-0.012970	-0.002289	0.010834	-0.009918	
-0.049287	-0.030060	-0.010223	-0.007172	
-0.057527	-0.034028	-0.053559	-0.008392	
-0.053254	-0.006866	-0.073701	-0.006866	
-0.045014	-0.009918	-0.083772	0.000763	
-0.027313	-0.038606	-0.064851	0.003815	
-0.013885	-0.057527	0.030670	-0.001373	
-0.003510	-0.030365	0.228733	0.005341	
-0.005035	-0.041047	0.188754	-0.005646	
0.015717	-0.026093	0.038606	-0.003510	
-0.015106	-0.021515	-0.035249	-0.008392	
-0.013885	-0.021210	-0.035859	-0.001373	
-0.010223	-0.026398	-0.002899	0.000153	
-0.007477	-0.013580	0.018768	-0.001984	
-0.004425	-0.015106	0.038301	-0.005951	
0.010834	0.004120	0.067597	-0.001984	
0.030060	0.028839	0.012665	-0.010529	
0.047761	0.042878	-0.077973	-0.011749	
0.042268	0.050813	-0.020294	-0.010529	
0.032197	0.059052	-0.012054	-0.010223	
-0.001373	0.047456	-0.038301	-0.010529	
-0.034333	0.048066	-0.039216	-0.019684	
-0.045014	0.044099	-0.001373	-0.009003	
-0.056306	-0.004120	0.036164	-0.011749	
-0.064240	-0.017853	0.083772	-0.012054	
-0.059358	-0.008087	-0.019684	-0.013275	
-0.038301	0.008392	-0.070039	-0.003204	
-0.054170	-0.019989	-0.008087	-0.015411	
-0.033723	-0.024261	0.004120	-0.003204	
-0.005035	-0.005341	0.005951	-0.009918	
0.013275	0.011749	0.011749	-0.007782	
0.012665	0.008392	0.005341	-0.009918	
-0.001984	0.014801	0.012665	-0.004425	
-0.026398	0.000153	0.021210	-0.007477	
-0.005646	-0.012970	0.039216	-0.004425	
0.025787	-0.007172	0.063935	-0.001984	
0.043794	0.010834	0.032807	-0.008392	
0.050202	0.029144	-0.037690	-0.007172	
0.041352	0.026398	-0.064851	-0.003510	
0.046540	0.036469	-0.043794	0.000153	
0.028534	0.037080	0.008698	0.005341	
0.011749	0.024567	0.082551	0.007782	
-0.013885	-0.012970	0.061799	-0.000763	
-0.052949	-0.025177	-0.003204	0.000153	
-0.070954	-0.019073	-0.012360	-0.005646	
-0.059968	-0.026398	-0.002289	0.001068	
-0.044404	-0.032502	0.023041	-0.011749	
-0.016937	-0.007782	0.019379	-0.003510	
-0.005341	0.004425	-0.004425	-0.005341	
0.009918	0.004730	0.007172	-0.008087	
0.009003	-0.005646	0.012970	-0.009613	
0.010223	-0.012970	0.022736	-0.007477	
0.009613	-0.012970	0.019379	-0.008392	
-0.005341	-0.021210	0.010529	-0.010529	
-0.012360	-0.001984	0.005341	-0.011139	
-0.017853	0.020905	0.004425	-0.016022	
-0.023651	0.028839	0.003204	-0.013275	
-0.025787	0.016022	-0.001678	-0.018463	
0.000458	0.020294	0.004425	-0.010223	
0.016022	0.015106	-0.003815	-0.016632	
0.032807	0.023956	-0.001984	-0.003815	
0.027924	0.016327	0.004120	-0.007477	
0.030975	0.012360	0.017242	0.001068	
0.010529	0.002289	0.009003	-0.009918	
0.009613	0.008392	0.008392	-0.007782	
0.006866	0.015106	0.008698	-0.002899	
-0.001068	0.018158	0.005341	-0.001678	
0.011139	0.023346	0.021515	-0.002899	
0.018158	0.026398	0.020905	-0.005951	
0.016937	0.028229	0.009918	-0.007172	
-0.003204	0.011749	0.012665	-0.005035	
-0.024261	0.002289	0.010529	0.000458	
-0.026398	0.005035	0.007172	-0.005341	
-0.011749	0.024261	0.024261	0.000153	
-0.037690	0.000763	0.006866	-0.002289	
-0.077668	-0.046540	-0.031587	-0.006256	
-0.071259	-0.072785	-0.039216	-0.012970	
-0.021210	-0.054170	0.001068	-0.005341	
0.009613	-0.037385	-0.018463	-0.011749	
0.037995	-0.028229	0.044404	-0.012360	
0.026398	-0.027313	0.143892	-0.007782	
0.002289	-0.015106	0.124056	0.001068	
-0.006256	-0.012360	0.004730	0.000153	
0.004730	-0.009308	0.011139	-0.000153	
0.003204	-0.005646	-0.123140	-0.001678	
-0.003204	0.014496	-0.120699	0.002594	
0.001984	0.025177	0.002594	-0.000153	
-0.003815	0.030365	-0.008392	0.000763	
-0.009613	0.028534	-0.014496	-0.002289	
-0.009613	0.013275	0.092011	-0.008087	
-0.005646	0.004425	0.080110	-0.014191	
-0.023651	0.011749	-0.067903	-0.013580	
-0.033723	0.020905	-0.059968	-0.005951	
-0.037385	0.012360	-0.009003	-0.012054	
-0.033723	0.029755	0.060273	-0.007477	
-0.025787	0.021820	0.080110	-0.017548	
0.019073	0.024872	0.111849	-0.016327	
0.048066	0.029144	0.046540	-0.015106	
0.058137	0.021820	-0.005951	-0.010529	
0.030060	-0.017242	-0.041352	-0.019684	
0.007172	-0.045014	-0.022430	-0.011139	
-0.017548	-0.048676	-0.005341	-0.014191	
-0.048982	-0.031587	0.000153	-0.006866	
-0.055390	-0.041963	-0.006866	-0.010529	
-0.049897	-0.051423	-0.013580	-0.010223	
-0.027008	-0.029449	-0.001373	-0.001984	
-0.005341	-0.007172	-0.002899	-0.005951	
0.011749	0.016632	0.005035	-0.004425	
0.013275	0.036164	0.004120	-0.011444	
0.017242	0.066377	0.016632	-0.005035	
0.012665	0.062715	0.016327	-0.010529	
0.014801	0.038911	0.016022	-0.007477	
0.005951	0.022736	-0.003510	-0.009308	
-0.005341	0.016022	-0.040132	-0.003815	
-0.016022	-0.001068	-0.043489	-0.005341	
-0.027008	0.008698	-0.044404	0.000153	
-0.025482	0.009003	-0.002899	0.005035	
-0.029144	-0.008392	0.083161	-0.003510	
-0.014801	-0.030060	0.143892	-0.015106	
0.013885	-0.022430	0.079499	-0.013885	
0.034028	-0.011749	0.027008	-0.005951	
0.025177	-0.004120	0.047456	-0.010223	
0.016937	0.008087	-0.001678	-0.007172	
0.011139	0.012970	-0.075532	-0.005951	
0.010834	0.024872	-0.023346	-0.005035	
-0.005341	0.024872	-0.021210	-0.007172	
-0.005646	0.027924	0.008392	-0.000763	
-0.008392	0.016327	0.012054	-0.006256	
-0.010834	0.006866	0.010529	-0.005646	
-0.028839	-0.002899	0.001984	-0.009918	
-0.034944	0.003204	0.004425	-0.011749	
-0.031892	0.000458	0.003815	-0.017242	
-0.015411	0.005951	0.007172	-0.010529	
-0.013275	-0.005341	0.006866	-0.011749	
-0.023346	-0.015717	0.001068	-0.015106	
-0.009918	-0.002899	0.004120	-0.013580	
0.012970	0.010223	0.006866	-0.013580	
0.036775	0.022125	0.012054	-0.012970	
0.035859	0.026093	0.006561	-0.012054	
0.026398	0.030975	0.013885	-0.007172	
0.004425	0.019379	0.014191	-0.007172	
0.005646	0.031281	0.018768	0.002899	
-0.004425	0.016937	0.000153	0.000153	
-0.025787	-0.003510	-0.013885	0.005951	
-0.040132	-0.028229	-0.042573	-0.001984	
-0.036164	-0.042268	-0.062104	0.001068	
-0.045930	-0.049592	-0.054170	0.000153	
-0.039216	-0.041047	-0.008392	0.003204	
-0.024261	-0.034028	0.075532	-0.001678	
-0.015106	-0.023956	0.146334	-0.005646	
-0.007477	-0.015106	0.165561	-0.008087	
0.007782	-0.009003	0.063935	-0.001984	
0.018463	0.010529	-0.019989	0.001068	
0.016632	0.026703	-0.001068	0.001068	
0.023956	0.034638	-0.036469	-0.000153	
0.031892	0.026398	-0.031281	-0.008392	
0.030975	0.028839	0.041047	0.002594	
0.014191	0.027313	0.016937	-0.011749	
-0.001678	0.025177	-0.016937	-0.005951	
-0.023956	0.004120	-0.016937	-0.010529	
-0.030060	-0.021515	0.008392	-0.007172	
-0.027618	-0.037385	-0.004425	-0.012360	
-0.027924	-0.025787	-0.005951	-0.002899	
-0.044404	-0.030975	0.001068	-0.013275	
-0.026398	-0.029144	0.006866	-0.011749	
-0.019684	-0.029144	0.009308	-0.009308	
-0.028229	-0.021515	-0.012970	-0.005646	
-0.019379	0.016937	-0.001678	-0.005646	
-0.012970	0.044709	0.001068	-0.011749	
0.005035	0.023041	0.002899	-0.010223	
0.014801	0.012360	0.008392	-0.016327	
0.010529	0.013275	0.014801	-0.014191	
0.003204	0.014191	0.012970	-0.011749	
-0.005341	0.008698	0.013885	-0.005646	
-0.013885	-0.013580	0.012665	-0.009613	
-0.016937	-0.028229	0.012360	-0.003510	
-0.015106	-0.022125	0.004730	-0.003815	
0.008087	-0.001373	0.001068	0.000763	
0.017853	0.001068	-0.004120	-0.008392	
0.016327	0.021820	0.010529	-0.005035	
0.023651	0.034944	0.012970	-0.006866	
0.032197	0.045320	0.024567	0.002289	
0.033723	0.052033	0.036775	-0.003510	
0.032807	0.061189	0.020294	0.002594	
0.010834	0.037995	0.009918	-0.000153	
-0.010834	0.009003	0.014496	-0.005035	
-0.023346	-0.002899	0.023041	-0.009613	
-0.045930	-0.012054	0.009003	-0.006256	
-0.039521	-0.010834	-0.013580	-0.006256	
-0.029449	-0.016327	-0.020599	-0.012054	
-0.021820	-0.019684	-0.040742	0.001068	
-0.026398	-0.005341	-0.032502	-0.003510	
-0.012054	0.013275	0.047761	-0.001984	
-0.014191	0.011749	0.037690	-0.003815	
-0.014191	0.022736	-0.060578	-0.003204	
-0.018158	0.023956	-0.055390	-0.005035	
-0.003815	0.009308	0.032502	-0.003204	
-0.005951	-0.008392	0.020599	0.000763	
-0.013580	-0.015717	0.025482	0.000458	
-0.016937	-0.027924	0.090180	-0.005035	
-0.021210	-0.033113	0.032502	-0.002899	
-0.010223	-0.034028	0.008698	-0.003510	
0.013275	-0.020905	0.032807	-0.003510	
0.026398	-0.001373	0.009308	-0.009308	
0.014496	0.007782	0.002594	-0.015717	
0.005951	0.004120	0.012054	-0.009918	
0.006866	-0.015106	0.003815	-0.009308	
0.007172	-0.017242	0.004730	-0.009918	
-0.003510	-0.012360	-0.002899	-0.013275	
0.005646	0.014801	-0.000153	-0.001373	
-0.011139	0.008392	0.002289	-0.012970	
-0.013275	0.008087	0.012665	-0.005035	
-0.016937	0.010223	-0.002289	-0.003204	
-0.017548	0.031281	0.011749	0.000763	
-0.013885	0.038911	0.008698	-0.007477	
0.007782	0.035249	-0.033418	-0.012360	
0.032502	0.031892	-0.057832	-0.019073	
0.059968	0.037080	0.000763	-0.009308	
0.065156	0.033113	0.012054	-0.016022	
0.057221	0.039216	-0.037385	-0.014191	
0.045930	0.045320	0.004730	-0.012054	
0.020599	0.042268	0.049592	-0.005035	
-0.019379	0.017853	0.052339	0.002899	
-0.064546	-0.009003	0.162204	-0.008392	
-0.082551	-0.030060	0.144808	-0.007172	
-0.083772	-0.051728	0.024872	-0.012054	
-0.058137	-0.055085	-0.014191	-0.010529	
-0.053254	-0.065766	-0.033418	-0.015717	
-0.052339	-0.047151	0.009308	-0.012054	
-0.043794	-0.042268	0.018463	-0.005646	
-0.023651	-0.026398	-0.015717	-0.003510	
-0.012360	-0.001373	-0.088349	-0.001984	
0.005646	0.009918	-0.023346	0.005341	
0.019073	0.017242	0.071870	0.003815	
0.021210	0.033113	0.018463	0.000153	
0.010529	0.037995	-0.019073	-0.009003	
0.004730	0.045014	-0.055696	-0.001984	
-0.013275	0.045930	-0.045625	-0.001984	
-0.029755	0.044099	-0.016327	-0.001984	
-0.037080	0.046540	0.012665	-0.009613	
-0.019684	0.026398	0.025482	-0.012970	
0.006561	-0.019684	0.030670	-0.009308	
0.038301	-0.043183	0.040437	-0.013275	
0.052644	-0.038606	0.040132	-0.009308	
0.052949	-0.021515	0.027008	-0.010529	
0.078889	0.008087	0.015411	-0.005035	
0.079804	0.023041	0.006256	-0.016022	
0.064546	0.038606	0.001984	-0.000153	
0.032807	0.028839	-0.003815	-0.003204	
0.008698	0.018768	-0.015717	-0.002899	
-0.029144	0.014191	-0.030365	-0.007782	
-0.048066	0.007172	-0.015411	-0.007477	
-0.064240	-0.027313	0.006866	-0.007172	
-0.071565	-0.056306	0.027313	-0.005341	
-0.076447	-0.054475	0.039216	-0.005646	
-0.053254	-0.029144	0.010834	-0.004120	
-0.022430	-0.012054	-0.049287	-0.006866	
-0.009613	-0.001068	-0.004425	-0.009308	
0.012970	0.016937	0.074616	-0.005341	
0.031892	0.030670	0.057221	-0.015717	
0.053254	0.056916	0.026093	-0.018463	
0.048066	0.062104	-0.021210	-0.012054	
0.048066	0.069428	-0.009003	0.003815	
0.013275	0.044099	-0.014496	-0.003510	
-0.016022	0.029755	0.000458	-0.005035	
-0.045930	0.007782	-0.007172	-0.002899	
-0.056916	-0.037385	0.026398	-0.002289	
-0.055390	-0.060578	0.052339	0.003815	
-0.061189	-0.066072	0.014496	0.001678	
-0.073396	-0.071870	0.010834	0.002289	
-0.048371	-0.054170	0.007172	-0.002899	
-0.013885	-0.032197	0.014191	-0.005951	
0.006866	-0.003510	0.012054	-0.008392	
0.024567	0.024567	-0.001678	-0.009308	
0.032197	0.036775	-0.006866	-0.009918	
0.040132	0.049897	0.014191	-0.002899	
0.039216	0.054780	0.014191	-0.009918	
0.027924	0.060273	0.008698	-0.005646	
0.011749	0.059968	0.005341	-0.013580	
0.002594	0.059052	0.018768	-0.007477	
-0.015106	0.034333	0.034944	-0.014191	
-0.028229	0.002289	0.040132	-0.014191	
-0.046235	-0.028229	0.005951	-0.009003	
-0.035554	-0.027008	-0.014496	-0.010529	
-0.017548	-0.026398	-0.046845	-0.009918	
-0.013275	-0.020905	-0.089265	-0.010529	
-0.001068	-0.009003	-0.055696	-0.009003	
0.004425	-0.000153	-0.009308	0.001068	
0.014191	0.009308	-0.005951	0.008087	
0.020599	0.010223	-0.007477	0.010223	
0.020294	0.007172	0.117037	0.008087	
0.002289	0.008087	0.093843	0.000458	
-0.013885	-0.008087	0.057832	0.000458	
-0.039826	-0.043489	0.037080	-0.007172	
-0.032197	-0.053254	0.056916	-0.009918	
-0.008392	-0.055085	0.031587	-0.007782	
-0.005035	-0.031892	-0.024567	-0.008392	
-0.016022	-0.022125	-0.028534	-0.018463	
-0.002289	-0.003815	0.004730	-0.009918	
-0.012054	-0.007477	0.021210	-0.012360	
-0.002899	0.006561	0.031587	-0.005951	
0.015717	0.018768	0.000153	-0.008087	
0.032807	0.034028	-0.019684	-0.009918	
0.030060	0.041047	-0.010223	-0.015106	
0.030060	0.045320	0.016937	-0.016022	
0.014496	0.037995	0.016937	-0.019379	
-0.007477	0.027008	0.001984	-0.012970	
-0.023041	0.016327	-0.017548	-0.009918	
-0.025482	-0.006256	-0.034333	-0.008392	
-0.012054	-0.015106	0.001068	-0.000153	
-0.004425	-0.009918	0.049287	0.000458	
-0.012054	-0.001373	0.073091	-0.004425	
-0.021210	-0.009308	0.022430	-0.013275	
-0.018158	-0.001068	0.019379	-0.006866	
-0.028229	0.003204	-0.038301	-0.007477	
-0.017548	0.009308	-0.110018	-0.003510	
-0.019989	-0.002289	-0.059968	-0.007172	
0.000763	0.004425	0.001984	0.005341	
-0.000153	0.011749	0.041352	-0.001373	
0.006866	0.022430	0.078584	0.004425	
0.005035	0.007172	0.003815	-0.001678	
-0.008392	-0.009613	-0.009613	0.001678	
-0.011139	-0.016937	-0.000763	-0.004425	
-0.013275	-0.012054	-0.020294	-0.005035	
-0.007782	-0.009003	-0.017853	0.000763	
0.001068	-0.010834	-0.007172	0.001678	
0.026398	0.001678	0.029449	0.005035	
0.030975	0.008087	0.041352	-0.001984	
0.034944	0.020905	0.044404	-0.005341	
0.026093	0.028229	0.009003	-0.017242	
0.017242	0.028229	-0.015411	-0.012054	
-0.009613	0.015717	-0.021210	-0.021820	
-0.031281	0.014191	0.015411	-0.010529	
-0.046235	-0.008392	0.022430	-0.014191	
-0.049897	-0.018158	0.020294	-0.015106	
-0.043489	-0.036469	0.019989	-0.017853	
-0.032197	-0.042573	0.007782	-0.009918	
-0.022430	-0.023651	0.005035	-0.005035	
-0.009918	-0.002289	0.006866	-0.001678	
-0.011749	0.008698	0.050508	0.000763	
-0.017853	-0.001984	0.061494	-0.005646	
-0.001373	0.006561	0.040742	-0.008392	
0.005646	0.016632	0.013275	-0.010223	
0.005646	0.019073	0.021210	-0.004120	
0.007172	0.024567	0.012665	-0.009308	
0.004730	0.032197	0.009003	-0.006866	
-0.003204	0.023041	0.001068	-0.010223	
0.004730	0.024567	0.004425	-0.002899	
0.004120	0.018158	-0.000153	-0.016632	
0.017853	0.033418	0.003815	-0.011444	
-0.005951	0.015106	-0.001373	-0.014496	
-0.027008	-0.012970	0.004730	-0.008392	
-0.034028	-0.031892	0.000458	-0.009308	
-0.005951	-0.003510	-0.000153	-0.008392	
0.014801	0.026093	0.002289	-0.008087	
0.016632	0.030060	0.002899	-0.007172	
0.014191	0.006256	0.012054	-0.002899	
0.006561	-0.007782	0.012970	-0.007477	
0.004730	-0.013885	0.013275	-0.003510	
0.014496	-0.018463	0.006256	-0.013275	
0.025177	0.006561	0.004730	-0.005341	
0.005951	0.002899	-0.002899	0.002594	
-0.008392	0.001678	0.008698	0.003815	
-0.023651	-0.012970	-0.004120	-0.007477	
-0.007477	-0.023651	-0.039826	0.002289	
0.009918	-0.019073	-0.037995	-0.012360	
0.010529	0.014496	0.016327	0.001678	
-0.033418	0.007172	-0.024261	-0.005646	
-0.044099	0.003815	-0.056306	-0.000763	
-0.055696	-0.003815	0.020599	-0.005951	
-0.062409	-0.009003	0.106966	-0.002899	
-0.039826	-0.021515	0.111238	-0.003204	
-0.011749	-0.031892	0.031587	-0.008087	
0.005035	-0.023346	0.044404	-0.013275	
0.001068	-0.020905	0.000458	-0.021515	
0.019073	-0.002899	0.003204	-0.015106	
0.032807	0.012054	-0.019379	-0.008392	
0.037995	0.023956	0.002899	-0.009003	
0.037690	0.034944	0.005341	-0.009308	
0.045320	0.092622	0.020599	-0.005951	
0.025177	0.099337	0.005951	-0.003204	
-0.008087	0.041047	-0.019073	-0.000763	
-0.041047	0.012054	0.005035	-0.009003	
-0.045320	0.000153	0.003204	-0.007782	
-0.037995	-0.013580	-0.029755	-0.005646	
-0.039216	-0.023956	-0.032502	-0.006256	
-0.056001	-0.031587	-0.014496	-0.008087	
-0.081941	-0.057221	-0.024261	-0.001984	
-0.069734	-0.077973	0.001984	0.003204	
-0.023956	-0.076142	0.057527	-0.000763	
0.010223	-0.043489	0.053864	0.001068	
0.036469	-0.001984	-0.009613	-0.007172	
0.062715	0.034028	0.004120	-0.004120	
0.063935	0.045014	0.012665	-0.003204	
0.045320	0.046540	0.015411	0.001068	
0.030060	0.027924	0.005341	-0.001068	
0.028839	0.021820	-0.029755	-0.003204	
0.022736	0.008698	-0.055390	-0.007477	
0.028534	0.020905	0.037385	0.002899	
0.013275	0.019379	0.073396	-0.005035	
-0.001068	0.011139	0.010223	-0.004120	
-0.007477	-0.003510	-0.029144	-0.013275	
0.004120	-0.000153	0.001678	-0.013275	
-0.018158	-0.014191	0.027008	-0.016327	
-0.016022	0.001068	0.017242	-0.005341	
-0.029449	0.019379	0.057221	-0.016327	
-0.051118	0.008698	0.024567	-0.017853	
-0.068513	-0.008392	-0.022125	-0.016632	
-0.056916	-0.025482	-0.015106	-0.015106	
-0.041963	-0.020905	0.012970	-0.006256	
-0.043183	-0.019379	0.017242	-0.006256	
-0.030060	-0.017242	0.010529	-0.009308	
-0.011749	-0.009613	0.006866	-0.016632	
0.010529	0.004120	0.017242	-0.006256	
0.018158	0.003204	0.008698	-0.016022	
0.030670	0.017242	0.021210	-0.008392	
0.016022	0.021820	0.022125	-0.013580	
0.016022	0.028534	0.013885	-0.002899	
0.022125	0.023346	0.002289	-0.005341	
0.030060	0.033113	0.008698	-0.004425	
0.023651	0.034028	-0.009003	0.002594	
0.011139	0.022736	-0.007477	-0.002899	
-0.016327	0.012665	0.002594	-0.015411	
-0.045320	0.007172	-0.008392	-0.015106	
-0.051728	0.002289	-0.007172	-0.004120	
-0.040437	-0.009918	-0.031587	-0.006866	
-0.019379	-0.002899	0.034333	-0.006866	
-0.008392	0.006866	-0.025482	-0.010223	
-0.012054	0.004730	-0.071870	-0.010223	
-0.020905	-0.001984	0.052339	-0.012054	
-0.009308	0.003815	0.051728	-0.002899	
0.008392	0.001068	0.051423	-0.004425	
0.015717	0.008392	0.021210	-0.001984	
-0.000153	0.004730	-0.019684	-0.005341	
-0.009003	-0.013580	0.019073	-0.005951	
-0.010223	-0.025482	0.064851	-0.009918	
-0.002289	-0.007172	0.029449	-0.005035	
-0.000153	-0.004120	0.013275	-0.009613	
0.002899	0.005951	0.055085	-0.005341	
0.007782	0.003815	0.036469	-0.003815	
0.008698	0.003815	0.013275	-0.003510	
0.006866	0.004425	0.012665	-0.002899	
0.002899	0.003204	0.008392	-0.005341	
-0.000763	0.006256	0.002289	-0.000153	
0.002899	0.012360	-0.023651	-0.004425	
0.006866	0.020905	-0.028534	-0.000763	
0.006866	0.012665	-0.011139	-0.003204	
0.004730	0.009308	0.008698	-0.002899	
-0.003204	-0.002289	0.032197	-0.011139	
-0.005341	-0.001373	0.048371	-0.007172	
0.000153	-0.011444	-0.003204	-0.010529	
0.009613	-0.000763	-0.021515	-0.007782	
0.017242	0.008087	-0.027618	-0.011444	
0.031281	0.019073	0.004120	-0.001678	
0.028534	0.034028	0.045014	-0.005951	
0.029755	0.043489	0.099947	-0.004120	
0.021210	0.060578	0.034944	-0.005035	
0.001984	0.062104	-0.064240	-0.007477	
-0.029755	0.028839	-0.053864	-0.008392	
-0.066377	-0.019684	-0.009308	-0.013885	
-0.081025	-0.042268	0.021515	-0.000153	
-0.086518	-0.069123	-0.019073	-0.005646	
-0.064240	-0.061189	-0.014191	0.005341	
-0.050202	-0.057832	-0.018158	-0.001373	
-0.034028	-0.040437	-0.011139	-0.001678	
-0.021210	-0.024261	-0.009918	-0.003510	
-0.010223	-0.012970	0.012665	0.001068	
-0.007172	-0.010223	0.033113	-0.010529	
0.005646	0.000763	0.027924	-0.010529	
0.010529	0.012970	0.014191	-0.007782	
0.014801	0.012970	-0.003815	-0.000763	
0.020599	0.018463	-0.017242	-0.002289	
0.027924	0.027924	0.047151	-0.005951	
0.029755	0.032502	0.039521	-0.000763	
0.024261	0.026703	-0.025482	-0.001984	
0.014801	0.019073	-0.013580	-0.001984	
0.006866	0.011139	0.016632	-0.005341	
-0.003510	0.014191	0.018768	-0.005951	
-0.019989	0.002289	0.029144	-0.013885	
-0.022430	0.018158	0.017242	-0.008392	
-0.029144	0.012054	-0.012970	-0.003510	
-0.016022	0.001984	-0.004120	0.002289	
0.007782	-0.015411	-0.029449	-0.007172	
0.038911	-0.020294	-0.028229	-0.002899	
0.036469	-0.007172	-0.000763	-0.013580	
0.030365	0.005951	0.034333	-0.014191	
0.015717	0.007782	0.038911	-0.011749	
0.005646	0.007172	0.021210	-0.012054	
-0.004425	0.004120	0.015411	-0.014496	
-0.007172	0.016022	0.022125	-0.005341	
-0.000153	0.010834	0.026093	-0.005341	
-0.004120	0.000153	0.027008	-0.013275	
-0.013275	0.004425	0.027313	-0.013275	
-0.018158	0.012054	0.030670	-0.005646	
-0.031587	0.008698	0.029144	-0.005341	
-0.039826	-0.009308	0.012665	-0.014191	
-0.038301	-0.012360	0.000153	-0.015106	
-0.024872	-0.011139	-0.002899	-0.011749	
-0.024872	-0.019379	0.020905	-0.003815	
-0.030365	-0.032502	0.009003	-0.009918	
-0.013275	-0.011139	-0.045625	-0.005035	
-0.005951	-0.001984	-0.042573	-0.016022	
0.001068	0.010529	-0.029144	-0.004425	
-0.004425	0.012970	0.014191	-0.009003	
-0.010223	0.026093	0.044404	-0.010529	
-0.017548	0.026703	0.032807	-0.006256	
-0.002899	0.029144	0.030975	0.004425	
0.017853	0.021820	0.056306	0.009918	
0.022430	0.012970	-0.002899	0.006866	
0.017242	0.011749	-0.015717	0.005951	
-0.006866	-0.003510	-0.014191	-0.002899	
-0.029449	-0.020294	-0.014191	0.000153	
-0.034028	-0.051118	-0.013275	-0.003204	
-0.019073	-0.044404	-0.003815	0.000763	
-0.011139	-0.027313	0.011139	-0.000763	
0.010529	0.009003	0.054780	0.001984	
0.003204	0.037385	0.062715	-0.006256	
0.001984	0.034333	0.024261	0.000458	
-0.008392	0.004120	-0.011749	-0.009918	
0.008087	0.001068	0.014801	-0.005646	
0.030365	0.014801	0.002594	-0.010529	
0.037080	0.030975	-0.000153	-0.017853	
0.038301	0.033418	0.016327	-0.014191	
0.015717	0.012970	0.036775	-0.011139	
-0.018158	-0.017548	0.010529	-0.015717	
-0.023651	-0.024261	-0.023041	-0.017853	
-0.018463	-0.017853	-0.001373	-0.013275	
-0.005035	0.008698	-0.016937	-0.006866	
0.005035	0.033113	-0.015717	0.002289	
-0.015411	0.027008	0.008392	-0.003510	
-0.014191	0.036164	-0.006256	0.003204	
-0.015717	0.014191	-0.045320	-0.000763	
-0.005646	0.012970	0.010223	0.002899	
-0.019989	0.003204	0.051118	-0.007172	
-0.028839	-0.004120	0.015411	-0.012360	
-0.027313	-0.012970	-0.009613	-0.010223	
-0.012360	-0.013580	-0.011139	-0.003204	
-0.003510	-0.015106	-0.025787	-0.011139	
0.003204	-0.010834	0.005035	-0.015717	
0.005646	-0.000763	0.046235	-0.011749	
0.000763	0.012665	0.113375	-0.009308	
-0.001068	0.016632	0.126497	-0.011139	
-0.003815	0.013885	-0.013275	-0.014191	
0.005035	0.013275	0.002289	-0.009918	
0.000153	0.014496	-0.028229	-0.013580	
-0.009308	0.008392	0.002594	-0.009613	
-0.017548	0.003204	0.057832	-0.017853	
-0.006256	0.004425	0.030670	-0.013885	
-0.005035	-0.008087	-0.003204	-0.012054	
0.006866	-0.003815	0.012665	0.002899	
-0.005341	-0.009613	-0.034028	-0.010529	
0.005646	-0.005341	-0.058747	-0.005646	
0.004120	-0.016937	0.004120	-0.001678	
-0.001068	-0.005035	-0.013275	0.005035	
0.010834	0.004730	-0.023651	-0.001984	
0.001068	0.012360	0.024872	-0.004120	
-0.002289	0.016937	0.041352	-0.005035	
-0.003510	0.004730	-0.009003	-0.015411	
-0.018158	-0.003510	-0.024261	-0.016327	
-0.046540	-0.022125	-0.025482	-0.021515	
-0.049897	-0.027313	-0.022430	-0.005646	
-0.063020	-0.043183	-0.014191	-0.003510	
-0.047151	-0.037385	0.022125	0.011444	
-0.031281	-0.034028	0.031281	0.007782	
-0.013580	-0.012970	0.024872	0.000763	
0.000153	-0.005951	0.040132	-0.012054	
0.007782	-0.000763	0.037080	-0.014496	
0.013275	0.000763	0.034638	-0.017853	
0.028229	0.021820	0.017853	-0.012054	
0.030975	0.032807	0.012665	-0.015106	
0.031281	0.038911	-0.037385	-0.012970	
0.027008	0.041963	-0.016022	-0.005646	
0.012665	0.038911	-0.001678	0.000153	
0.012360	0.030670	-0.031892	-0.000763	
0.014191	0.017853	-0.033113	-0.001984	
-0.005035	0.012970	0.037080	-0.009613	
-0.031281	0.002899	0.005341	-0.012970	
-0.045930	-0.019989	0.020294	-0.005646	
-0.051118	-0.027313	0.033418	-0.011444	
-0.020294	-0.019379	0.032502	-0.011444	
-0.007477	-0.021515	0.024567	-0.013275	
0.011139	0.000153	0.021210	-0.011444	
0.019073	0.003204	0.011139	-0.016327	
0.033723	0.016327	0.019073	-0.009003	
0.030060	0.016937	0.013885	-0.014191	
0.038606	0.029755	0.013885	-0.004120	
0.036775	0.039826	0.008392	-0.011444	
0.034638	0.040742	0.003815	-0.007477	
0.016327	0.036775	-0.002899	-0.008392	
-0.018463	0.042573	0.005341	0.004425	
-0.051118	0.005035	0.002594	0.010223	
-0.047151	-0.024872	0.000458	0.008698	
-0.036469	-0.021515	0.010529	0.004120	
-0.033418	-0.027313	0.012970	0.000153	
-0.048066	-0.034944	-0.011749	-0.005951	
-0.053559	-0.048676	-0.046235	-0.012054	
-0.029755	-0.048066	-0.021820	-0.002899	
-0.034028	-0.049287	0.021210	-0.005951	
-0.017853	-0.019379	0.084687	0.001984	
-0.003815	-0.008087	0.030365	-0.010223	
0.013275	0.012665	-0.002899	-0.008087	
0.008698	0.027924	-0.016022	-0.014191	
0.014191	0.037080	-0.004425	-0.012970	
0.005035	0.037080	0.022125	-0.011444	
0.003815	0.052339	0.026093	0.003815	
0.000153	0.042268	0.034638	-0.000763	
0.005646	0.021820	0.038606	-0.008392	
-0.003204	-0.012054	-0.014496	-0.015106	
-0.003204	-0.034333	-0.029755	-0.009918	
-0.000763	-0.037690	0.009003	-0.007782	
-0.010834	-0.041963	0.013885	-0.013580	
0.009003	-0.022430	0.009003	-0.005341	
0.005646	-0.012360	0.002594	-0.010223	
0.000763	0.011749	0.008087	-0.006256	
-0.005341	0.013275	0.001984	-0.002899	
-0.002289	0.020905	0.004120	0.000458	
-0.005951	0.025177	0.001068	-0.008087	
0.000153	0.041963	0.006561	-0.008392	
0.000458	0.041352	0.005035	-0.016632	
0.010529	0.046235	0.012054	-0.006256	
0.010834	0.037995	-0.002289	-0.017853	
0.034028	0.048676	0.003204	-0.003510	
0.022430	0.032197	-0.009308	-0.007477	
-0.001678	0.009308	-0.015106	-0.008087	
-0.011749	-0.009918	-0.009918	-0.001373	
-0.028839	-0.022430	-0.004120	-0.003815	
-0.038911	-0.034028	0.022430	-0.001678	
-0.038301	-0.032502	0.035554	-0.004120	
-0.015411	-0.017853	0.019073	-0.008392	
-0.009308	-0.019073	0.007782	-0.017242	
-0.014801	-0.015106	0.012665	-0.016632	
-0.015717	-0.011749	0.014191	-0.011749	
-0.022125	-0.007172	0.013275	-0.009003	
-0.043489	-0.014801	0.009918	-0.014496	
-0.038301	-0.004120	0.012970	-0.007782	
-0.019989	-0.011444	0.008392	-0.005951	
0.001068	-0.013275	0.013275	0.000763	
0.000763	-0.019073	0.008087	-0.011444	
0.003204	-0.004425	0.014801	-0.000153	
-0.006256	-0.007172	0.011139	-0.004120	
-0.003815	0.001678	0.007782	-0.007172	
0.009613	0.001678	0.012054	-0.008392	
0.010529	0.006561	0.006866	-0.010529	
0.009918	0.010834	0.006256	-0.004425	
0.009918	0.008698	0.002594	0.000763	
0.009918	0.023346	0.008392	0.009308	
-0.010834	0.016022	-0.005646	-0.005646	
-0.007782	0.010834	0.003204	-0.000763	
-0.005341	-0.002289	0.010223	-0.002289	
-0.004120	-0.003510	0.018768	0.002289	
-0.009918	-0.005035	0.004425	-0.012970	
0.015106	0.011749	0.013885	-0.003204	
0.023041	-0.000153	0.009003	-0.009918	
0.040437	0.027313	0.021210	-0.001068	
0.023651	0.036164	0.019989	-0.010223	
0.010223	0.041047	0.024872	-0.012970	
-0.015411	0.030060	0.021210	-0.017548	
-0.047151	0.008698	0.009003	-0.012970	
-0.042878	-0.009918	-0.011749	-0.009918	
-0.030975	-0.023346	-0.031281	-0.009613	
-0.045625	-0.030365	-0.031281	-0.005951	
-0.041352	-0.031281	-0.022125	-0.005035	
-0.031892	-0.030060	-0.017853	0.003815	
-0.023346	-0.019684	-0.030365	0.000153	
-0.015411	-0.014191	0.033418	0.000153	
-0.020905	-0.012360	0.036164	-0.000153	
-0.017548	0.002594	0.063935	0.002899	
-0.030365	-0.001068	0.132601	-0.008392	
-0.013580	0.023346	0.190890	-0.001678	
0.014801	0.043183	-0.054475	-0.001678	
0.046235	0.059968	-0.124361	0.005035	
0.036469	0.042573	-0.031587	-0.011749	
0.037080	0.022736	-0.046540	-0.009918	
0.040742	0.009003	-0.035554	-0.010529	
0.028229	0.006256	0.068818	-0.014191	
0.013275	0.005646	0.046235	-0.005646	
-0.000763	0.008698	0.020599	0.002594	
0.005951	0.016022	0.016632	0.006561	
0.002899	0.019379	0.001984	-0.003815	
0.000763	0.026703	-0.002899	0.000153	
-0.009003	0.021820	-0.009308	-0.007172	
-0.024261	0.016632	-0.012054	-0.003510	
-0.037080	0.011749	-0.023346	-0.008392	
-0.025482	-0.004425	-0.005035	-0.012970	
-0.026398	-0.026398	0.035554	-0.019379	
-0.017853	-0.021515	0.065461	-0.017242	
-0.016937	-0.018463	0.002899	-0.011749	
-0.007782	-0.014191	-0.005646	-0.004120	
-0.019989	-0.035554	0.006256	-0.011139	
-0.022125	-0.041352	0.001068	-0.009308	
-0.008392	-0.026093	0.003204	-0.013275	
0.021210	-0.011139	0.012054	-0.007172	
0.027008	-0.001678	0.016022	-0.010529	
0.026703	0.010529	0.016022	-0.006256	
0.029755	0.027313	0.011749	-0.002289	
0.016022	0.029755	-0.003204	-0.008392	
0.011139	0.038911	0.004730	-0.003815	
-0.005951	0.020294	0.005341	-0.014191	
-0.010223	0.005951	0.013275	-0.006256	
-0.021515	-0.007782	0.008392	-0.015106	
-0.022430	-0.005951	0.010834	-0.012970	
-0.014191	-0.014801	0.010834	-0.012054	
-0.010834	-0.013885	0.021210	-0.010529	
-0.013580	-0.021210	0.039521	-0.014191	
-0.005951	-0.007172	0.047761	-0.007477	
-0.008087	-0.001068	0.026398	-0.015411	
0.011749	0.016327	0.021210	-0.005341	
0.015717	0.020905	-0.003204	0.000153	
0.004730	0.033418	-0.047456	0.006561	
-0.013885	0.018158	-0.069123	-0.004120	
-0.035554	0.006256	0.004425	-0.012970	
-0.043489	0.008087	0.036164	-0.012360	
-0.025177	0.001068	-0.030060	-0.005035	
-0.011749	-0.003815	-0.021515	-0.002289	
-0.003815	-0.004120	0.026398	-0.007172	
0.004120	0.003204	0.019989	-0.004425	
0.006866	0.011139	0.029144	-0.009613	
0.007172	0.023041	0.020905	-0.005035	
0.007782	0.030365	0.011139	-0.005951	
0.012360	0.028229	0.014496	-0.001984	
0.010223	0.004425	0.005035	-0.008087	
0.019073	0.026398	-0.003815	-0.001984	
-0.008087	0.006866	-0.005035	-0.001984	
-0.038301	-0.029449	0.010529	-0.001984	
-0.042268	-0.035554	0.019989	0.001678	
-0.039521	-0.033113	0.000458	-0.012970	
-0.027008	-0.026398	-0.005341	-0.010529	
-0.013885	-0.025177	-0.021820	-0.003204	
-0.002289	-0.017548	-0.019989	0.005341	
0.000153	-0.001984	-0.000763	0.006256	
0.009003	0.004730	0.034028	-0.001984	
0.022125	0.019379	0.034638	-0.005951	
0.034944	0.035249	0.081025	-0.002899	
0.019073	0.042878	0.075837	-0.003204	
0.008698	0.044709	0.004730	0.001068	
0.002594	0.024872	-0.038301	-0.010529	
0.011139	0.011749	-0.038606	-0.008392	
0.002899	-0.006866	-0.017853	-0.017548	
-0.013885	-0.014801	0.009003	-0.005341	
-0.042878	-0.035249	0.015411	-0.003815	
-0.027008	-0.033723	0.030670	0.005341	
-0.022430	-0.043489	0.037385	0.001068	
-0.016937	-0.030975	0.016937	0.000763	
-0.003204	-0.013275	-0.004120	-0.002289	
0.015106	-0.005341	0.005341	-0.015717	
0.016937	0.005035	0.012054	-0.011139	
0.003204	0.006561	0.008698	-0.019684	
0.006561	0.016327	-0.013580	-0.013885	
0.002289	0.000153	-0.017242	-0.013580	
-0.005951	-0.009613	-0.023956	-0.007782	
-0.017548	-0.017548	-0.031281	-0.010529	
-0.020905	-0.010223	0.003815	-0.010223	
-0.027008	-0.015106	0.019073	-0.005035	
-0.024872	0.000458	0.046540	-0.000763	
-0.035554	-0.003815	0.028839	-0.013580	
-0.023956	0.005951	0.012665	-0.013275	
-0.012970	0.016022	0.022430	-0.016327	
0.001678	0.031281	0.019379	-0.011444	
0.005035	0.046235	-0.017548	-0.014496	
0.020294	0.057527	-0.032197	-0.008392	
0.030670	0.059968	0.030670	-0.007782	
0.030365	0.049897	0.135347	-0.006256	
0.022125	0.039216	0.125277	-0.013275	
-0.003204	0.028229	-0.027618	-0.006866	
-0.029144	0.008392	-0.012360	0.000458	
-0.058442	-0.016937	0.041352	-0.002899	
-0.046540	-0.029755	-0.011749	0.002899	
-0.037385	-0.031587	-0.052033	-0.005341	
-0.027008	-0.027008	0.019073	-0.005035	
-0.023346	-0.032197	0.014496	-0.006256	
-0.019073	-0.015106	-0.005951	-0.003510	
-0.013885	-0.015411	-0.010223	-0.009003	
-0.003510	-0.009308	0.001678	-0.007172	
0.007782	-0.003815	0.012665	-0.007477	
0.020905	0.012054	0.016022	-0.001984	
0.020599	0.020294	0.006866	-0.008392	
0.021820	0.025177	-0.011749	-0.009003	
0.022736	0.028229	-0.040437	-0.003510	
0.012360	0.013275	-0.025482	-0.007477	
0.002594	0.002899	-0.009918	-0.003510	
-0.007172	-0.001068	-0.003815	-0.009613	
-0.013275	-0.007477	0.017242	-0.012360	
-0.009613	-0.014191	0.048371	-0.010223	
-0.004425	-0.006256	0.048676	-0.005341	
-0.005035	-0.003204	0.009918	-0.009918	
0.001678	0.010834	-0.013885	0.001678	
0.006866	0.014801	-0.007172	0.002899	
0.017853	0.026093	-0.001984	0.004425	
0.005035	0.014191	-0.023041	-0.008392	
0.009918	0.015106	-0.030060	-0.000763	
0.003815	0.008087	0.031587	-0.008392	
-0.003815	0.012054	0.038911	-0.011444	
0.000458	0.011139	0.002289	-0.010529	
0.001984	0.003204	-0.019684	-0.007172	
-0.005951	-0.001984	0.022125	-0.007782	
-0.039521	-0.023041	0.015411	-0.012054	
-0.029144	-0.016327	-0.003204	-0.002899	
-0.017242	-0.017853	0.004120	-0.005951	
0.003815	-0.006866	-0.000153	0.000763	
0.007782	-0.004120	-0.009003	-0.001984	
0.017853	0.008392	0.017242	0.006561	
0.013885	0.026703	0.028229	0.006866	
0.002289	0.029144	0.014801	0.000153	
-0.013885	0.018463	0.023346	-0.011749	
-0.021515	0.022125	0.019073	-0.001984	
-0.018158	0.008698	-0.005341	-0.006866	
-0.016022	-0.020905	-0.031587	-0.011444	
-0.030365	-0.033418	-0.011444	-0.015717	
-0.029755	-0.019073	0.034944	-0.009918	
-0.020294	-0.010834	0.063630	-0.008392	
-0.015106	-0.005951	0.049287	-0.003510	
-0.011139	0.004425	0.036775	-0.004120	
-0.011749	-0.001068	0.004120	-0.011749	
-0.002899	-0.002899	0.018463	-0.009613	
-0.005951	-0.005951	0.011749	-0.016632	
-0.005035	-0.001373	0.004730	-0.016022	
-0.002289	0.001678	0.001984	-0.015717	
0.009918	0.028534	0.006256	-0.003510	
0.012665	0.020294	-0.007477	-0.008392	
0.022430	0.029144	-0.003510	0.000153	
0.005646	0.020905	0.021515	-0.012970	
0.001984	0.016022	0.039216	-0.000763	
-0.008392	0.009918	0.014496	-0.005951	
-0.007172	0.010834	0.010834	-0.009308	
-0.004425	0.007782	-0.002289	-0.003510	
-0.006256	0.004425	0.011139	-0.002899	
-0.017548	0.000763	0.028229	-0.013275	
-0.018158	-0.001984	0.007782	-0.005035	
-0.017548	-0.017548	-0.021515	-0.004425	
-0.019989	-0.023651	-0.021210	-0.010223	
-0.016022	-0.013580	-0.011139	-0.004425	
-0.020294	-0.012054	0.004425	-0.012054	
-0.015717	-0.004120	0.024872	-0.003815	
-0.010223	-0.008392	0.014191	-0.001984	
-0.001068	0.004120	-0.006256	-0.001984	
-0.009613	0.005035	-0.006256	-0.005646	
0.001068	0.015106	-0.001373	0.001678	
0.004120	0.013275	-0.009613	-0.002899	
0.010529	0.017242	-0.008392	-0.001678	
0.010529	0.020599	-0.003204	-0.000763	
0.020599	0.026703	0.000458	0.000763	
0.027313	0.023956	0.014801	0.000458	
0.013275	0.019073	0.017242	-0.008392	
0.002594	0.017242	-0.007477	-0.011749	
-0.005341	0.001678	-0.023651	-0.013580	
-0.006256	0.005035	0.021210	-0.002289	
-0.026093	-0.002899	0.013885	-0.011444	
-0.021210	-0.005341	-0.017242	-0.005341	
-0.011139	-0.012360	0.037690	-0.008392	
-0.004120	-0.011444	0.093232	-0.010223	
-0.007477	-0.011139	0.024872	-0.019684	
0.008698	-0.003204	-0.030365	-0.011749	
0.016937	-0.005341	-0.012970	-0.011749	
0.030060	0.000763	0.004730	-0.007172	
0.019684	0.007172	0.009308	-0.003204	
-0.012054	-0.001068	0.030670	-0.006866	
-0.034944	-0.019989	0.121614	-0.012970	
-0.031587	-0.016327	0.097811	-0.013885	
-0.034028	-0.017548	-0.001068	-0.020599	
-0.051728	-0.037690	-0.033418	-0.010529	
-0.074616	-0.054170	-0.041352	0.004120	
-0.058442	-0.041047	-0.041657	-0.001984	
-0.019684	-0.026398	-0.045320	-0.009003	
-0.008392	-0.020294	-0.029144	-0.011139	
0.005035	-0.001068	0.062715	-0.009003	
0.010834	0.010223	0.057221	-0.011749	
0.019073	0.028229	0.084687	-0.009918	
0.014191	0.033113	0.028839	-0.005646	
0.017242	0.036469	-0.017548	-0.000763	
0.012665	0.028229	0.012054	-0.005951	
0.025177	0.033418	0.002594	0.000458	
0.026398	0.030975	-0.045625	-0.012360	
0.020599	0.031892	-0.040742	-0.010529	
0.013275	0.019379	-0.011139	-0.014191	
0.017853	0.028839	-0.013275	-0.004120	
-0.002289	0.016632	-0.019073	-0.004120	
-0.019073	0.001068	0.019073	-0.005951	
-0.021210	-0.008392	0.037080	-0.005035	
-0.016937	-0.005646	0.035554	-0.005646	
-0.017548	-0.012360	-0.000763	-0.005646	
-0.020294	-0.017242	-0.020294	-0.007782	
-0.015411	-0.006866	-0.004425	-0.005035	
-0.014191	-0.012970	0.001984	-0.012970	
-0.004425	-0.002289	0.007782	-0.010529	
-0.005341	-0.007172	0.004425	-0.007782	
0.001984	0.003204	0.004425	0.003204	
-0.006866	0.000458	-0.006256	-0.010529	
0.006561	0.006256	0.005951	-0.009308	
0.010834	0.014496	0.010529	-0.012054	
0.012054	0.028229	0.010223	-0.007477	
0.001984	0.026398	0.009918	-0.007172	
-0.001373	0.027008	0.014496	0.000153	
-0.021210	0.011139	0.010223	-0.007172	
-0.017853	0.004425	0.009003	-0.000153	
-0.025482	-0.015717	0.010529	-0.001373	
-0.019379	-0.013885	0.008392	-0.001678	
-0.000763	-0.000763	-0.014496	0.000458	
0.005951	-0.001984	-0.012360	0.001068	
0.013275	0.007782	0.016022	0.004120	
0.012054	0.007782	0.022736	-0.005646	
0.006866	0.005951	0.062409	0.000153	
0.006256	0.004120	0.084687	0.000763	
0.008087	0.005646	0.027008	-0.004425	
-0.002899	0.007172	-0.066682	-0.010529	
-0.005035	0.010223	-0.011444	-0.009308	
-0.007172	0.002289	0.020294	-0.012054	
-0.008392	0.004425	-0.005035	-0.010529	
-0.013885	0.006256	0.015411	-0.001373	
-0.011749	-0.005646	0.059663	-0.000763	
-0.016022	0.000458	0.052339	-0.007782	
-0.019073	-0.009613	0.014801	-0.013580	
-0.012054	-0.006866	-0.039216	-0.009308	
0.002594	0.005035	-0.057527	-0.000763	
-0.006256	-0.002899	-0.021820	0.001678	
-0.008392	-0.000153	0.000153	0.001068	
-0.000153	0.007172	-0.014496	-0.004425	
0.012360	0.009003	-0.010223	-0.013580	
0.013885	0.006561	0.006561	-0.005951	
-0.001678	0.000153	0.019379	-0.013580	
-0.001984	0.020905	0.113375	-0.012054	
-0.021515	0.014801	0.114901	-0.014191	
-0.034028	0.014496	0.072480	-0.008392	
-0.035859	-0.008087	0.045014	-0.013275	
-0.028229	-0.019989	-0.044099	-0.004120	
-0.028229	-0.014801	-0.035554	-0.002899	
-0.018158	0.001984	-0.020599	-0.001984	
-0.015106	0.008392	-0.050508	-0.009308	
-0.006256	0.014191	-0.015717	-0.007477	
-0.003204	0.011749	-0.027008	-0.012054	
0.005951	0.010834	0.004730	-0.007477	
0.007782	0.004730	0.040437	-0.010223	
0.002899	-0.001068	0.034028	-0.013580	
-0.004425	0.007172	0.041657	-0.008392	
-0.013580	-0.000153	-0.005341	-0.011749	
-0.006866	-0.001068	-0.016937	-0.004425	
-0.003815	-0.001984	-0.027313	-0.003815	
0.000458	0.007172	-0.011749	-0.008392	
-0.000763	0.006256	0.024872	-0.001984	
-0.010223	-0.003204	0.024567	-0.001678	
-0.010223	-0.007172	-0.008087	-0.005951	
-0.009308	-0.001068	-0.015717	-0.000763	
-0.004425	-0.002289	0.017242	-0.006256	
0.001068	0.002289	0.001984	-0.005646	
0.003204	0.005035	0.008392	-0.003510	
0.004730	0.014496	0.073091	-0.001678	
0.005035	0.019073	0.108187	-0.006866	
0.012665	0.023041	0.002899	-0.005035	
0.025787	0.033113	-0.011444	-0.005951	
0.050202	0.039216	-0.006866	-0.017853	
0.059358	0.048982	0.013885	-0.013580	
0.034028	0.042573	-0.016022	-0.011444	
0.005951	0.032197	-0.048676	-0.004425	
-0.037690	0.010223	-0.049897	-0.007782	
-0.052949	0.002289	-0.015411	-0.011444	
-0.064240	-0.019379	0.014801	-0.011444	
-0.056916	-0.049592	0.023041	0.003815	
-0.045320	-0.074006	0.009918	-0.004425	
-0.035554	-0.059663	0.010529	-0.000763	
-0.033113	-0.047761	0.007172	-0.005951	
-0.007782	-0.030060	0.003204	-0.009003	
-0.005035	-0.017853	-0.001068	-0.008392	
0.002289	-0.004120	0.006866	0.000153	
0.002289	0.003815	0.018768	0.000458	
0.001068	0.016327	0.010834	-0.000153	
0.002899	0.016327	0.014496	-0.006866	
0.008698	0.007172	0.020294	-0.011444	
0.014191	-0.001678	0.012665	-0.011444	
0.017853	0.003815	-0.000153	-0.011749	
0.022125	0.004425	-0.015717	-0.008392	
0.011749	0.003204	-0.009918	-0.009918	
0.010529	0.012970	0.015411	0.000763	
-0.005951	0.003815	0.037080	-0.005951	
-0.005951	0.003815	0.054780	-0.004425	
-0.015717	0.009918	0.040132	-0.003510	
-0.017242	0.010834	0.020294	-0.007172	
-0.032197	0.001984	0.001984	-0.007782	
-0.023956	0.008087	0.013275	-0.004120	
-0.000153	0.020599	0.004425	0.000153	
0.012054	0.020294	-0.007477	-0.001373	
0.016022	0.022736	0.008698	-0.001068	
0.012360	0.033113	-0.013580	0.001678	
0.010529	0.034638	-0.014191	-0.001984	
-0.007172	0.023041	-0.005951	-0.008392	
-0.017242	0.008698	0.004730	-0.005646	
-0.015411	0.004120	0.027313	-0.006256	
-0.015411	0.006561	0.046540	0.002594	
-0.027313	-0.002289	0.028839	-0.009308	
-0.011139	0.011749	0.020599	-0.005646	
-0.016937	0.007172	-0.015106	-0.009613	
-0.019684	-0.011139	-0.019684	-0.004425	
-0.013580	-0.017853	0.012665	-0.011749	
0.001984	0.007782	0.004730	-0.013885	
0.016937	0.012360	0.001984	-0.014191	
0.022125	0.012054	0.021515	-0.016022	
0.006561	0.004730	0.029144	-0.015106	
-0.005341	-0.009308	0.018463	-0.008392	
-0.006256	-0.027618	0.000458	-0.005951	
-0.007782	-0.033113	-0.018463	-0.008392	
0.007782	-0.003510	-0.020294	-0.002899	
-0.008392	-0.008392	-0.015411	-0.015717	
-0.005951	-0.004425	0.011749	-0.015411	
-0.002289	0.003815	0.013885	-0.020294	
0.005035	0.012970	0.044404	-0.011444	
0.004120	0.016022	0.034333	-0.019073	
-0.002289	0.024872	0.009003	-0.004120	
-0.012054	0.012360	0.028534	-0.012360	
-0.011139	0.009308	0.021515	-0.012360	
-0.015411	-0.001373	-0.012970	-0.009918	
-0.013885	0.006256	0.001984	-0.005646	
-0.011139	0.005951	0.006866	-0.009308	
0.002594	0.008698	-0.004120	0.000763	
0.015717	0.019379	0.010223	0.000153	
0.019989	0.019379	0.001678	-0.005035	
0.006866	0.020294	-0.001678	0.001678	
-0.008392	0.015106	0.022125	-0.004120	
-0.013275	0.009918	0.032807	-0.005951	
-0.027924	-0.003510	0.016937	-0.005035	
-0.042268	-0.023651	-0.004425	-0.010529	
-0.045320	-0.044404	-0.017853	-0.014191	
-0.027008	-0.041352	-0.023346	-0.002899	
-0.019073	-0.036469	-0.043489	-0.008087	
-0.005951	-0.015717	-0.032197	-0.005951	
-0.002899	-0.004120	0.009308	-0.009003	
0.007782	-0.001373	0.040742	-0.007172	
0.009918	-0.004120	0.019989	-0.010223	
0.014801	0.007172	0.073091	-0.001373	
0.005646	0.010529	0.047456	-0.002289	
-0.007782	0.012360	0.004730	-0.002899	
-0.026093	0.001678	-0.005646	-0.001984	
-0.031892	-0.005646	0.039521	-0.000153	
-0.023956	-0.005646	0.036775	-0.001984	
-0.013275	-0.004120	-0.003204	-0.002899	
-0.013275	-0.005341	-0.023651	0.000763	
-0.011139	0.003815	-0.014191	-0.007477	
-0.002899	0.008087	-0.032197	-0.008087	
-0.013885	-0.002289	-0.010223	-0.016327	
-0.004425	-0.001373	0.004425	-0.007477	
0.008392	0.004425	-0.005646	-0.006256	
0.022736	0.016937	0.030060	-0.000153	
0.028534	0.016937	0.085908	-0.004425	
0.027313	0.027313	0.046235	-0.008392	
0.026093	0.027313	-0.045625	-0.013580	
0.026703	0.033418	-0.007477	-0.005951	
0.012360	0.021820	0.001678	-0.006866	
-0.003815	0.010834	0.004425	-0.003204	
-0.023346	0.002289	-0.007477	-0.011444	
-0.020905	0.008087	-0.004425	-0.011139	
-0.013580	0.006256	0.006256	-0.007172	
-0.015106	-0.008392	0.014801	-0.009003	
0.001984	-0.009308	0.017242	-0.000153	
-0.004120	-0.009918	0.009918	-0.005035	
-0.009003	-0.002289	0.017242	-0.009003	
-0.011139	-0.003510	-0.017853	-0.014191	
0.002594	0.007172	-0.023041	-0.005035	
-0.009613	0.008087	-0.002899	-0.006256	
-0.022430	0.016937	0.009003	-0.001373	
-0.037690	0.008698	0.005341	-0.005035	
-0.037080	0.001068	0.052949	-0.001984	
-0.033418	-0.006866	0.026398	-0.016327	
-0.000153	0.005951	0.012054	-0.008392	
0.010834	0.009308	-0.000153	-0.015106	
0.027924	0.016632	-0.019073	-0.004425	
0.020599	0.009003	0.024261	-0.001984	
0.004120	0.005035	0.048982	-0.003510	
-0.005035	-0.002289	0.030060	-0.012054	
-0.013885	-0.001373	-0.007172	-0.011749	
-0.013580	0.001678	0.013275	-0.009308	
-0.012360	-0.001984	0.022736	-0.009918	
-0.005035	0.003204	0.021210	-0.002899	
-0.000763	-0.001068	-0.013885	-0.015106	
0.016022	0.003204	-0.035859	-0.007782	
0.013275	-0.009003	-0.017548	-0.014496	
0.018463	-0.003510	-0.002899	-0.001984	
0.009918	-0.008087	0.001984	-0.005035	
0.008087	0.006866	0.027008	-0.001984	
-0.012360	-0.015106	0.030670	-0.012054	
-0.031892	-0.034028	0.020294	-0.009308	
-0.022125	-0.029449	0.020905	-0.009613	
-0.005951	-0.009003	0.012665	-0.013885	
0.006866	0.005951	0.012054	-0.020599	
0.008087	0.022430	0.047151	-0.011444	
-0.003204	0.023041	0.036164	0.001068	
-0.009308	0.010834	0.009308	0.002899	
-0.005951	0.001678	0.006256	0.002289	
-0.012360	-0.010223	-0.015411	0.000153	
-0.011444	-0.011444	-0.017548	-0.001373	
-0.018463	-0.011749	-0.006866	-0.012970	
-0.009918	-0.000763	0.004425	-0.004120	
-0.005951	-0.002289	-0.001678	-0.009003	
0.015106	0.014496	0.004120	-0.000763	
0.016937	0.012970	-0.012970	-0.007782	
0.024261	0.036164	-0.012054	0.000153	
0.022125	0.027313	-0.008392	-0.011444	
0.019073	0.031281	0.000153	-0.001984	
-0.008087	0.028839	-0.001373	-0.009918	
-0.017242	0.030365	0.008087	-0.008392	
-0.016937	0.009003	0.007782	-0.010529	
-0.029449	-0.006256	0.011749	-0.005646	
-0.043183	-0.029144	0.062409	-0.004120	
-0.063020	-0.035249	0.043183	-0.005646	
-0.067903	-0.035859	0.022125	0.002899	
-0.053559	-0.045014	0.048371	0.001068	
-0.033113	-0.031587	0.028839	-0.002289	
-0.027924	-0.027924	-0.029144	-0.006256	
-0.010834	-0.008392	-0.042573	0.014191	
-0.001678	0.002594	-0.032502	0.014191	
0.005951	0.019989	-0.019073	0.011444	
-0.000763	0.018768	0.022125	-0.001678	
0.009003	0.027008	0.045625	-0.002289	
0.011139	0.030365	0.032502	-0.004120	
0.024567	0.033418	0.017242	-0.005035	
0.023956	0.034333	0.033418	-0.007782	
0.029144	0.035249	0.019073	-0.009308	
0.034333	0.035249	0.008698	-0.006866	
0.039216	0.036469	0.001068	-0.005341	
0.022430	0.032807	0.004120	-0.005035	
-0.001068	0.019379	-0.004425	-0.006256	
-0.021210	0.020599	0.001984	-0.004425	
-0.028229	0.004425	-0.002899	-0.012054	
-0.023651	-0.005951	-0.009308	-0.007477	
-0.031281	-0.025177	-0.011749	-0.012054	
-0.023651	-0.026398	-0.012360	-0.008087	
-0.016937	-0.030060	-0.023346	-0.016632	
-0.005341	-0.025482	-0.012360	-0.011444	
-0.006256	-0.021210	0.001068	-0.015106	
-0.006866	-0.010834	0.042878	-0.013885	
-0.005646	0.001984	0.070954	-0.011444	
-0.006866	0.003815	0.083161	-0.009003	
-0.001984	0.000153	0.061494	-0.008392	
0.018768	0.017853	0.047761	-0.000153	
0.019073	0.016632	0.010529	-0.012054	
0.015717	0.017853	-0.070039	-0.009308	
0.007782	0.018768	-0.045625	-0.001678	
0.002289	0.010223	0.005035	-0.007782	
-0.014801	0.007172	0.040742	-0.007477	
-0.027008	0.001678	0.071259	-0.008392	
-0.023651	-0.007172	0.056306	-0.003204	
-0.040132	-0.025482	-0.039216	-0.009613	
-0.035249	-0.020905	-0.047456	-0.001984	
-0.025787	-0.029755	-0.028534	-0.014191	
-0.013275	-0.017548	-0.020294	-0.003510	
-0.013885	-0.012970	-0.042268	-0.009918	
-0.002289	-0.002289	-0.021820	-0.006866	
0.002594	0.003815	-0.013275	-0.002899	
-0.003815	0.004425	0.030060	-0.002289	
-0.000763	0.009003	0.047456	-0.008392	
0.004120	0.012970	-0.004425	-0.005951	
0.010529	0.010223	-0.001068	-0.000763	
0.006256	0.012970	-0.028229	-0.006866	
0.012665	0.018463	0.022736	-0.010529	
0.016022	0.021820	0.099031	-0.009918	
0.011749	0.012970	0.048676	-0.016022	
0.010834	0.003815	-0.009613	-0.017242	
0.020294	0.007172	0.030975	-0.002899	
0.002594	0.000763	0.002594	-0.003510	
-0.003204	0.012970	0.033113	-0.001373	
-0.009308	0.008392	0.044404	-0.009308	
-0.016327	0.003204	-0.022125	-0.001373	
-0.026093	-0.009308	-0.068513	-0.009003	
-0.005035	0.010834	-0.017242	-0.003815	
-0.000153	0.004425	-0.023041	-0.016327	
-0.005035	0.005646	-0.009613	-0.013580	
-0.005646	0.004730	0.014801	-0.015717	
-0.007477	0.010223	0.030060	-0.016632	
-0.007477	0.019073	0.017242	-0.016327	
0.011749	0.017853	0.015106	-0.013275	
0.029144	0.020294	0.038606	-0.012054	
0.017853	0.010834	0.067292	-0.014191	
0.006866	0.003815	0.058747	-0.012054	
-0.027618	-0.003204	0.012665	-0.013275	
-0.039216	-0.020294	-0.039826	-0.010529	
-0.045320	-0.031892	-0.003204	-0.010529	
-0.037690	-0.026093	0.018768	-0.009308	
-0.032502	-0.030060	-0.011749	-0.015106	
-0.019989	-0.009918	-0.012054	-0.007477	
-0.013580	-0.009308	0.002899	-0.016327	
0.006866	0.014496	0.006866	-0.003510	
0.011749	0.026093	-0.001678	-0.006866	
0.006256	0.023956	-0.019989	-0.009003	
0.003815	0.023346	-0.024261	-0.009613	
-0.000763	0.014496	-0.009613	-0.008392	
-0.007782	0.000153	0.005341	-0.006866	
-0.021210	-0.005646	0.024872	0.001678	
-0.029755	-0.020294	0.021210	0.000153	
-0.025787	-0.015106	0.017853	0.002899	
-0.020905	-0.010223	0.023346	0.008698	
-0.016022	-0.010223	0.005341	0.006256	
-0.010223	-0.001984	-0.001373	0.009308	
-0.006866	-0.002899	0.001984	0.006866	
0.019073	0.007172	0.017242	0.016632	
0.028229	0.001678	-0.000153	0.000458	
0.029755	0.011139	0.024872	0.003204	
0.024872	0.020905	0.036469	0.005341	
0.014496	0.018158	0.008698	0.004120	
0.004730	0.003815	-0.034638	0.000153	
-0.000153	0.000153	-0.012360	-0.004425	
-0.003204	0.004730	0.014191	-0.004120	
-0.017242	-0.001984	0.026398	-0.005035	
-0.014191	0.003204	0.045320	-0.001984	
-0.009003	0.012970	0.045014	-0.006866	
-0.002289	0.012054	0.015411	-0.012970	
-0.005035	0.014801	0.010223	-0.007477	
-0.010223	0.012970	0.029144	-0.010223	
-0.013580	0.001984	0.025177	-0.021515	
-0.001373	0.008698	0.013885	-0.016022	
-0.003204	0.002594	0.001068	-0.021210	
0.011749	-0.002899	0.005341	-0.014496	
-0.001984	-0.012054	-0.004425	-0.020294	
-0.003815	0.010834	-0.013885	-0.017853	
-0.008087	0.004120	-0.022430	-0.026398	
0.003815	0.008698	-0.005341	-0.016022	
-0.006256	0.016632	0.005035	-0.017242	
-0.011139	0.027924	-0.015106	-0.009918	
-0.012360	0.026398	-0.016937	-0.002899	
-0.025787	0.012054	0.020294	0.004425	
-0.027618	0.005951	0.029449	0.006561	
-0.030060	-0.007172	0.024261	-0.001373	
-0.032502	-0.009308	0.019073	0.005035	
-0.030365	-0.021820	-0.030060	-0.006866	
-0.017242	-0.016937	0.046845	-0.001678	
-0.011749	-0.010834	0.055696	-0.005035	
0.006256	-0.004425	-0.027618	-0.003510	
0.005646	-0.005035	0.001984	-0.011444	
0.018463	0.010834	0.067903	-0.007172	
0.013885	0.007172	0.030365	-0.016327	
0.022430	0.016022	-0.001068	-0.005646	
0.021820	0.010223	0.011749	-0.004425	
0.015106	0.012970	0.054475	-0.002899	
0.007172	0.009308	0.028839	-0.005951	
-0.002289	0.016022	-0.040437	0.000458	
-0.007172	0.017853	-0.043183	-0.004425	
-0.001678	0.010834	-0.021210	-0.006866	
0.005646	0.002289	-0.001984	-0.005951	
-0.007172	0.003204	-0.019684	-0.005035	
-0.011139	-0.003204	-0.017548	0.000763	
-0.012360	-0.015717	-0.003815	-0.008392	
-0.019073	-0.014191	0.012665	-0.005646	
-0.026093	-0.020905	0.014801	-0.009003	
-0.007172	-0.007477	0.014191	-0.001984	
-0.006866	-0.002289	0.002899	-0.012360	
-0.008087	-0.001068	0.012665	-0.012970	
-0.019379	-0.003510	0.036164	-0.015717	
-0.012970	0.004730	0.061494	-0.008392	
-0.008087	0.002594	-0.011749	-0.007172	
-0.009918	0.000153	-0.021210	-0.008392	
-0.018463	-0.011444	0.016632	-0.005951	
-0.016327	-0.002899	-0.014191	-0.001678	
-0.023346	0.002289	-0.034333	-0.015106	
-0.023346	0.000763	-0.009613	-0.017853	
-0.031281	0.007172	-0.011749	-0.011749	
-0.027618	0.008087	-0.025482	-0.006256	
-0.011444	0.008698	-0.028534	-0.002899	
0.005951	0.004730	0.064546	-0.002289	
0.027924	0.016022	0.126192	0.005035	
0.027924	0.008698	0.073701	-0.003510	
0.039826	0.009308	0.036164	-0.002899	
0.040437	0.009918	0.044099	-0.013885	
0.042268	0.022430	-0.041352	-0.005035	
0.023041	0.027008	-0.045625	-0.009918	
0.012054	0.030975	0.041352	-0.008087	
-0.011749	0.030365	0.016327	-0.012360	
-0.029755	0.019379	0.006866	-0.009918	
-0.037690	0.002289	-0.009613	-0.009613	
-0.014191	0.005646	0.017242	-0.005341	
0.002289	-0.003815	0.012665	-0.009613	
-0.007477	-0.021210	-0.009308	-0.012054	
-0.013885	-0.019989	0.004120	-0.004120	
-0.005341	-0.014801	0.000458	-0.004120	
0.008087	-0.015106	-0.000763	-0.006866	
0.002899	-0.010834	0.001678	-0.005035	
-0.003510	-0.003510	-0.003510	-0.005646	
-0.018158	-0.012054	-0.009918	-0.012054	
-0.005341	0.010223	0.002594	-0.003815	
-0.016022	0.012360	0.001984	-0.001373	
-0.013885	0.017242	0.007782	0.000763	
-0.018158	0.007172	0.013885	-0.009918	
-0.001678	0.004425	0.030670	-0.000153	
-0.017548	-0.009308	0.011139	-0.006866	
-0.018463	-0.003510	0.011139	-0.004120	
-0.018158	-0.013580	0.006866	-0.007172	
-0.025787	-0.021210	0.005341	-0.000763	
-0.030365	-0.029449	0.000153	-0.009308	
-0.012360	-0.020905	-0.001984	-0.010529	
0.001984	-0.001068	0.007172	-0.007172	
0.004425	0.007782	0.009003	-0.008392	
0.006866	0.011749	0.005035	-0.008392	
0.002594	0.017242	0.005035	-0.012360	
0.012665	0.025787	-0.004425	-0.008392	
0.003815	0.016022	-0.023956	-0.013885	
0.006256	0.016022	-0.000153	-0.008087	
0.001678	0.006561	0.024567	-0.010223	
0.001068	0.015106	0.055696	-0.005035	
0.001068	0.022430	0.011749	-0.009003	
0.002289	0.028229	0.057221	-0.000763	
-0.004425	0.010529	0.068513	-0.005646	
0.001984	0.008087	0.022125	-0.001373	
0.009613	0.014801	0.009003	0.005951	
0.020599	0.012970	0.000153	0.001068	
0.012665	0.000763	0.005035	-0.004425	
0.001984	0.002289	-0.018158	0.002594	
-0.013275	0.017242	-0.049897	-0.005951	
-0.022125	0.006561	-0.015411	-0.012054	
-0.023956	-0.003815	0.017242	-0.010223	
-0.027618	-0.007782	0.025482	-0.013580	
-0.023346	-0.006256	0.030975	-0.017853	
-0.027008	-0.009918	0.019989	-0.021210	
-0.041352	-0.003204	0.004730	-0.015411	
-0.052949	-0.033113	-0.007477	-0.016327	
-0.024872	-0.043183	0.004120	-0.003510	
-0.022430	-0.037995	-0.016022	-0.002899	
-0.008392	-0.016937	-0.018158	-0.001068	
-0.000153	-0.013580	-0.011139	-0.009613	
0.013275	-0.003510	-0.002899	-0.003510	
0.027924	0.012054	0.005341	0.000763	
0.022125	0.026093	-0.011139	-0.004425	
0.013275	0.026093	0.024261	-0.001984	
0.006256	0.027313	0.008392	0.000458	
-0.001678	0.023956	0.019073	0.001068	
-0.009003	0.013275	0.016022	-0.005951	
-0.014801	0.004120	0.001068	-0.003815	
-0.016327	-0.003510	0.054475	-0.000153	
-0.003510	0.001068	0.047456	0.005951	
-0.010834	-0.009003	-0.014191	-0.009003	
-0.009003	-0.003815	-0.023346	-0.007477	
-0.005646	-0.006866	-0.012360	-0.010223	
0.005646	0.002594	-0.004425	-0.006256	
0.000153	0.003815	0.005951	-0.016022	
0.011749	0.016632	0.047761	-0.008392	
0.008087	0.014801	0.060273	-0.009918	
0.016022	0.023041	0.028839	-0.005951	
0.019073	0.018158	0.009003	-0.011749	
0.012665	0.012054	-0.030670	-0.005646	
-0.010834	0.001984	-0.003815	-0.007477	
-0.017242	0.006561	0.016327	-0.005951	
-0.013580	0.012360	0.014496	-0.005646	
-0.016937	0.005035	0.005951	-0.005646	
-0.013275	0.002594	0.015106	-0.003510	
-0.009003	-0.011444	-0.006866	-0.003204	
-0.023956	-0.021210	-0.018463	-0.001984	
-0.033418	-0.032502	-0.013275	-0.001373	
-0.011749	-0.019684	-0.010223	0.004120	
-0.003510	-0.009308	0.012665	-0.000153	
0.009003	0.004425	0.053559	0.005951	
0.014801	0.013885	0.038606	0.002289	
0.022125	0.024872	0.013275	-0.000153	
0.017242	0.016632	0.006256	-0.002899	
0.019073	0.020599	0.004730	-0.001373	
0.013275	0.021820	-0.018158	-0.009918	
0.019073	0.024872	-0.041963	-0.002289	
0.010529	0.022125	-0.036775	-0.003510	
-0.001678	0.017242	-0.007782	-0.002289	
-0.007782	0.012970	-0.003204	-0.001678	
-0.017548	0.004730	0.020905	-0.007172	
-0.039826	-0.003510	0.102083	-0.014496	
-0.048982	-0.021210	0.106050	-0.013580	
-0.044099	-0.030060	0.048371	-0.019684	
-0.046235	-0.027924	0.063325	-0.021210	
-0.035554	-0.013580	-0.011139	-0.012970	
-0.009308	-0.011139	-0.063630	-0.012360	
0.009918	-0.006866	-0.001068	-0.002289	
0.002289	-0.012970	0.014191	-0.015106	
0.009613	0.006866	0.013885	-0.009918	
0.012665	0.008698	-0.002899	-0.014496	
0.008087	0.013275	-0.008087	-0.013580	
0.005646	0.016632	-0.018158	-0.010529	
0.016632	0.034333	-0.014191	-0.011139	
0.030060	0.043489	0.001984	-0.009003	
0.011139	0.030365	0.005341	-0.008392	
-0.011444	0.021820	0.024567	0.000153	
-0.025482	0.005646	0.018768	-0.001678	
-0.024261	-0.014191	0.018463	-0.007172	
-0.033418	-0.027924	0.012665	-0.007172	
-0.036164	-0.029755	0.001068	-0.005646	
-0.040437	-0.039826	-0.031587	-0.013885	
-0.016937	-0.020294	-0.035554	-0.000153	
-0.011444	-0.015717	-0.019684	-0.004425	
-0.002899	-0.003204	-0.006256	0.003204	
-0.002899	-0.001984	-0.009613	-0.002899	
0.007172	0.010834	0.044709	-0.003510	
0.006866	0.013275	0.092011	-0.011444	
0.016632	0.020294	0.032197	-0.012054	
0.025787	0.024567	-0.017242	-0.013885	
0.037995	0.037385	0.036469	-0.013275	
0.040437	0.040437	0.045625	-0.016022	
0.037080	0.040437	0.069428	-0.009918	
0.023651	0.044709	0.008698	-0.004120	
0.006256	0.032197	-0.059358	-0.011749	
-0.005646	0.019379	-0.030365	-0.003204	
-0.027618	-0.007477	-0.007172	-0.009308	
-0.037080	-0.033113	0.007782	-0.004120	
-0.052949	-0.052033	0.003204	-0.010529	
-0.038911	-0.033418	-0.000763	0.001068	
-0.039216	-0.032502	0.016022	-0.001678	
-0.026093	-0.024261	0.051423	-0.001984	
-0.008392	-0.016327	-0.016327	-0.011444	
0.011139	0.000153	-0.025787	-0.005951	
0.015717	0.016632	-0.016022	0.000153	
0.015106	0.028534	-0.009613	-0.000763	
0.006866	0.030975	0.006561	-0.007477	
-0.002899	0.020294	0.047151	-0.012054	
-0.006866	0.012970	0.059358	-0.011444	
-0.018158	0.006561	-0.012970	-0.007477	
-0.007477	-0.001068	-0.016937	-0.008087	
-0.005646	-0.011749	0.000153	-0.012054	
-0.008392	-0.017853	0.052339	-0.011139	
-0.013885	-0.020294	0.067597	-0.009918	
-0.010223	-0.004425	0.022125	-0.001068	
-0.011749	-0.003510	0.008392	-0.008087	
-0.001373	0.000763	-0.056306	-0.006866	
0.005951	-0.001373	-0.042573	-0.011444	
0.018158	0.002899	0.060578	-0.006866	
0.023956	0.002899	0.032807	-0.013580	
0.018463	0.007172	0.012665	-0.012970	
0.002289	-0.001984	0.009003	-0.012970	
0.002594	0.005646	0.011749	-0.001984	
-0.014801	0.005951	0.001984	-0.003204	
-0.025177	0.007782	-0.010834	-0.007172	
-0.031892	0.000763	-0.013275	-0.011749	
-0.035554	0.004425	0.002594	-0.014191	
-0.035249	0.005646	0.019073	-0.008392	
-0.032502	0.000458	0.067292	-0.008087	
-0.016022	0.006256	0.056306	-0.010529	
-0.006866	0.007782	-0.044709	-0.010529	
0.005646	0.012054	-0.046235	-0.005951	
0.010529	0.017242	-0.036164	-0.015106	
0.022736	0.021210	-0.022430	-0.001984	
0.016327	0.019379	-0.017242	0.000763	
0.013275	0.019073	-0.037385	0.005951	
0.010529	0.004120	-0.041352	0.001068	
0.009003	-0.003510	0.012665	0.008392	
-0.011139	-0.019989	0.061494	0.004120	
-0.015106	-0.031587	0.058747	0.000763	
-0.024872	-0.036469	0.102083	-0.009003	
-0.023041	-0.019684	0.050202	-0.004120	
-0.027313	-0.016937	-0.015717	-0.005646	
-0.022430	-0.009918	-0.001678	-0.008392	
-0.012360	0.002899	0.001068	-0.005341	
-0.006256	0.006561	0.009308	-0.002899	
0.002899	0.013275	0.009918	-0.002289	
0.012054	0.022430	0.000458	-0.005035	
0.017853	0.028229	0.003815	-0.005646	
0.007782	0.016327	0.004730	-0.017548	
0.016937	0.026703	0.009918	-0.009003	
-0.001984	0.019073	0.006561	-0.010529	
-0.010834	0.030365	0.020599	-0.001984	
-0.019073	0.020294	0.024261	-0.005951	
-0.012054	0.012054	0.021515	-0.001373	
-0.011749	0.003815	0.009308	-0.004120	
-0.006866	0.002594	0.008392	-0.005951	
-0.004425	0.002289	0.012665	-0.003204	
-0.014801	0.004425	0.001068	-0.008392	
-0.018158	-0.001984	-0.003510	-0.010223	
-0.015411	0.002594	-0.008392	-0.006866	
-0.011444	0.015717	-0.004425	0.000763	
-0.016937	0.008087	0.003204	-0.006256	
-0.005646	0.016327	0.016327	-0.002289	
-0.007477	0.004425	0.026703	-0.010223	
-0.010834	0.000763	0.026398	-0.001678	
-0.017548	-0.013580	0.010223	-0.004120	
-0.009308	-0.019073	-0.001068	-0.009613	
-0.005951	-0.026093	-0.036775	-0.016632	
0.000458	-0.013885	0.017242	-0.005035	
-0.007477	-0.019684	0.028839	-0.013580	
0.012665	0.005646	-0.004120	-0.011444	
0.020294	0.014191	-0.026093	-0.013275	
0.028534	0.017242	-0.005646	-0.018463	
0.028534	0.024567	0.018463	-0.015106	
0.013275	0.031892	0.012054	-0.006256	
-0.003815	0.029755	0.005951	-0.012054	
-0.010834	0.011749	0.011749	-0.007477	
-0.020294	0.001068	0.034028	0.001984	
-0.019073	-0.012054	0.018768	-0.004425	
-0.018158	-0.024261	0.015411	-0.011139	
-0.018158	-0.023651	-0.005341	-0.006256	
-0.014191	-0.010834	-0.001678	-0.005341	
-0.019073	0.000153	0.003815	-0.003510	
-0.013580	0.004120	0.012665	0.000153	
-0.006256	0.005951	0.025482	-0.009308	
-0.007782	0.008698	0.022125	-0.005341	
-0.012054	0.009003	0.000763	-0.009308	
0.000153	0.012970	0.000458	-0.001373	
-0.001068	0.006256	0.040742	-0.003204	
-0.009308	-0.001678	0.032197	-0.005035	
-0.019684	-0.008392	-0.012970	-0.006256	
-0.009003	-0.001984	-0.022430	-0.012054	
-0.001678	0.004730	0.008392	-0.009308	
0.003204	-0.003204	0.016327	-0.001373	
0.010529	-0.003204	0.004730	0.009308	
0.009003	0.009308	0.016632	0.008392	
0.012054	0.013275	0.039521	0.005341	
0.007782	0.008087	-0.020294	-0.002899	
0.010529	0.020294	-0.011444	-0.003510	
0.003204	0.015106	-0.011139	-0.007477	
0.007782	0.020905	0.006256	-0.003204	
0.002594	0.008087	0.010834	-0.011749	
0.016327	0.014496	-0.045930	-0.005035	
0.019073	0.011749	-0.029449	-0.014191	
0.033113	0.024567	0.034333	-0.007172	
0.014191	0.020905	0.077363	-0.013580	
-0.006256	0.012665	0.059052	-0.011749	
-0.031587	0.003204	0.042268	-0.016022	
-0.063020	-0.015717	-0.019989	-0.014191	
-0.057832	-0.034944	0.005951	-0.006256	
-0.027924	-0.023651	0.033418	-0.011749	
-0.021210	-0.027008	0.022736	-0.015106	
-0.019379	-0.037690	0.017242	-0.007477	
-0.015106	-0.033723	0.006256	-0.001984	
-0.012360	-0.027008	-0.017242	-0.011749	
-0.000153	0.000458	-0.023346	-0.010223	
0.004730	0.009003	-0.032502	-0.010529	
0.005951	0.014496	-0.027008	0.000153	
0.000763	0.007782	-0.018463	-0.005951	
0.008392	0.024872	0.021210	0.002594	
-0.010834	0.018768	0.018768	-0.003204	
-0.012360	0.004120	0.007172	-0.006256	
-0.007477	-0.003204	0.016327	-0.009003	
0.005951	0.006866	0.024261	-0.005951	
0.002289	0.012665	0.008392	-0.004120	
0.006866	0.013885	0.001678	-0.005035	
0.003815	0.006256	0.021515	-0.009003	
-0.007172	0.006256	0.027924	-0.012970	
-0.011749	0.007782	0.000153	-0.012970	
-0.003204	0.013885	-0.007172	-0.016632	
0.022125	0.041963	0.004120	-0.011139	
0.020599	0.043489	0.026398	-0.014496	
0.012665	0.028229	-0.002289	-0.009308	
-0.004120	0.003204	0.013275	-0.005035	
-0.011749	-0.000153	0.023346	0.002899	
-0.015106	-0.007172	-0.018158	0.003815	
-0.030060	-0.009918	-0.029144	0.004120	
-0.058137	-0.029449	0.021210	-0.008087	
-0.053559	-0.037995	0.045625	-0.009613	
-0.035554	-0.041963	0.002594	-0.010223	
-0.010834	-0.045930	0.012665	-0.002899	
0.006866	-0.040437	0.018463	-0.005035	
0.025177	-0.023346	0.030670	-0.000763	
0.031892	-0.011444	0.031281	-0.000153	
0.019073	-0.005646	0.036775	0.001678	
0.007172	0.004730	0.001984	0.001068	
0.002594	0.012665	-0.010223	0.002594	
0.013275	0.018768	-0.011444	0.000153	
0.015717	0.022736	0.003204	-0.006256	
0.027008	0.036164	0.012665	-0.002899	
0.024261	0.030975	0.007782	-0.012054	
0.022125	0.036164	0.012054	-0.006256	
0.013275	0.034944	0.002594	-0.013275	
0.002899	0.025177	0.010834	-0.014191	
-0.027313	0.004120	0.008392	-0.019073	
-0.045930	-0.011444	-0.006866	-0.020599	
-0.049287	-0.016937	-0.000153	-0.016327	
-0.033113	-0.015717	-0.001678	-0.015106	
-0.023956	-0.023651	-0.003815	-0.013885	
-0.019989	-0.014801	-0.000153	-0.012970	
-0.018158	0.000458	-0.001068	-0.008392	
-0.019073	-0.003510	-0.023651	-0.009918	
-0.017242	-0.005341	-0.064546	-0.007477	
-0.018158	-0.005951	-0.066682	-0.000763	
-0.019684	-0.002289	-0.014496	0.002899	
-0.018158	-0.005341	0.080720	0.002594	
-0.008087	0.003815	0.170749	0.004425	
-0.013580	0.004730	0.161899	-0.010223	
-0.005035	0.009918	0.034944	-0.010223	
-0.006256	0.006561	-0.039826	-0.009308	
0.001068	0.013885	-0.043489	-0.000763	
0.001068	0.012970	-0.030365	-0.005951	
-0.003815	0.002594	-0.017548	-0.007782	
0.005035	0.001678	-0.028229	-0.011444	
0.008392	0.012360	0.011139	-0.013885	
0.011749	0.017242	0.117037	-0.013580	
0.013275	0.020294	0.061494	-0.016022	
0.008698	0.017853	-0.016937	-0.013580	
0.012054	0.022430	0.008087	-0.004120	
0.009918	0.023041	0.024872	-0.001373	
0.001984	0.017242	-0.014496	-0.005341	
0.009003	0.019989	-0.055696	-0.005341	
0.004120	0.010834	-0.027008	-0.010529	
0.003204	0.008087	-0.039521	-0.001373	
-0.006256	0.000153	-0.027924	0.000458	
-0.009918	0.002899	0.026703	0.003815	
-0.013885	0.001984	-0.033418	-0.010529	
-0.011749	0.009308	-0.008392	-0.009003	
-0.021210	-0.000763	0.060884	-0.017548	
-0.017548	0.010223	0.056611	-0.014191	
-0.019989	0.011749	0.022430	-0.012970	
-0.013885	0.004120	0.042268	-0.010529	
-0.017242	-0.003204	0.013885	-0.005341	
-0.011749	0.006561	-0.000153	0.001678	
-0.002289	0.004120	-0.016327	0.000458	
0.006256	0.002289	-0.008087	0.008392	
0.002594	-0.001068	0.001068	-0.001984	
-0.001373	-0.006256	0.002899	-0.003510	
-0.003204	0.002289	0.005951	0.006866	
-0.016327	0.000153	-0.007477	-0.009613	
-0.002899	0.011139	0.012970	-0.006256	
0.016327	0.014191	0.017242	-0.003510	
0.037080	0.025787	0.017242	0.003815	
0.030670	0.033113	-0.000153	-0.003815	
0.037080	0.044099	-0.003815	0.000763	
0.012665	0.026703	-0.009003	-0.009308	
-0.024261	0.009918	0.001984	-0.006866	
-0.054170	-0.009613	0.016022	-0.007172	
-0.053559	-0.012970	0.012665	-0.009003	
-0.066987	-0.028229	0.017242	-0.005035	
-0.084077	-0.052033	0.014496	-0.006866	
-0.070954	-0.060578	0.017853	-0.009003	
-0.039521	-0.043794	0.025482	-0.011749	
-0.015411	-0.029144	0.022430	-0.012054	
-0.007172	-0.016937	0.002289	-0.017242	
0.008698	-0.005035	0.002594	-0.014191	
0.014801	-0.010223	0.008698	-0.019379	
0.022736	0.000153	0.016632	-0.015106	
0.026703	0.005646	-0.012970	-0.013580	
0.031281	0.016937	0.027313	-0.001984	
0.023041	0.014801	0.038606	-0.007782	
0.022125	0.018158	0.022736	-0.009308	
0.017853	0.016937	-0.030365	-0.021210	
0.011139	0.020599	-0.038301	-0.015106	
0.005035	0.014496	-0.028534	-0.010223	
0.005951	0.009003	-0.011444	-0.005951	
0.001984	-0.006866	0.049287	-0.004425	
-0.001373	-0.015411	0.067903	-0.007477	
-0.008087	-0.012970	0.026703	-0.003510	
-0.012970	-0.009613	0.012360	-0.002899	
-0.010834	0.002594	-0.002289	0.001678	
-0.012360	0.005951	-0.003204	-0.006256	
-0.008392	0.019073	0.001068	-0.005035	
-0.012054	0.014801	0.008087	-0.008392	
-0.000763	0.019073	0.022736	-0.001984	
0.013885	0.023041	-0.005951	-0.004425	
0.032502	0.030670	-0.006866	0.001068	
0.026093	0.019379	-0.006866	-0.002899	
0.042878	0.033113	0.018768	0.005341	
0.043794	0.036469	0.010834	0.000763	
0.025787	0.036164	-0.006256	-0.001984	
-0.012970	0.019379	0.003204	-0.008392	
-0.043794	0.005646	0.025482	-0.007477	
-0.059663	-0.016937	0.025177	-0.006256	
-0.066987	-0.041047	0.014191	-0.007172	
-0.046540	-0.044099	0.009003	-0.005341	
-0.034333	-0.035554	0.004730	-0.003510	
-0.013580	-0.017548	0.008698	0.002289	
-0.000153	-0.008392	0.002899	-0.004120	
-0.002899	-0.016937	0.012665	-0.007172	
0.001678	-0.017548	0.010834	-0.013580	
0.016327	0.003204	0.020905	-0.009613	
0.002594	0.009308	0.016022	-0.012970	
-0.005951	0.017853	0.004730	-0.003510	
-0.019684	-0.003815	0.008392	-0.009918	
-0.023346	0.000458	0.009003	-0.004425	
-0.043183	-0.003510	-0.000763	-0.005951	
-0.054475	-0.020905	-0.012970	-0.002899	
-0.045625	-0.025482	-0.005646	-0.010529	
-0.023956	-0.018158	0.010223	-0.016327	
-0.007172	-0.012970	0.012360	-0.016327	
-0.001678	-0.000153	0.015106	-0.013275	
0.014496	0.007172	0.024261	-0.005646	
0.024261	0.018768	-0.008392	-0.003204	
0.037995	0.034944	0.000458	-0.001678	
0.052949	0.043183	0.005341	-0.004425	
0.055390	0.049897	0.002289	-0.004425	
0.020905	0.049897	-0.010223	-0.019073	
0.001068	0.046540	0.043183	-0.016327	
-0.006256	0.030365	0.023346	-0.005341	
-0.019073	0.010223	0.021515	0.000458	
-0.038301	-0.020905	0.022736	-0.004425	
-0.034028	-0.027924	0.032807	-0.000763	
-0.044099	-0.031587	0.022125	-0.011139	
-0.043183	-0.033723	0.009003	-0.004425	
-0.032502	-0.034333	0.031587	-0.000763	
-0.028839	-0.037690	0.026398	-0.006866	
-0.026093	-0.038606	-0.005341	-0.002899	
-0.014801	-0.034333	-0.011139	-0.012360	
-0.000153	-0.019989	-0.007782	-0.008087	
0.010529	-0.007172	0.004730	-0.009003	
0.022430	0.011749	0.005951	-0.001373	
0.028229	0.016022	0.000458	0.000458	
0.034028	0.030670	-0.046845	-0.003510	
0.019989	0.030365	-0.031281	-0.013275	
0.008392	0.023956	0.068513	-0.001984	
-0.009308	0.020294	0.103304	0.005951	
-0.020905	0.022430	0.019073	0.001678	
-0.023956	0.008392	-0.054170	-0.012054	
-0.010223	0.006866	-0.049287	-0.012970	
0.002899	0.012054	-0.017242	-0.015717	
0.028229	0.018158	0.025177	-0.013275	
0.041963	0.024567	0.001984	-0.011749	
0.034638	0.030975	-0.009003	-0.009308	
0.026093	0.038301	0.038606	-0.001984	
0.009613	0.037385	0.025177	-0.001984	
-0.028229	0.030365	-0.012360	-0.005035	
-0.048066	0.016022	0.001984	-0.009918	
-0.053559	0.012360	0.006866	-0.006256	
-0.087739	-0.014191	-0.012360	-0.015106	
-0.070039	-0.040437	-0.034638	-0.007782	
-0.028839	-0.056306	-0.017242	-0.010223	
0.002594	-0.047456	-0.005341	-0.013885	
0.021210	-0.029755	0.004730	-0.013275	
0.032197	-0.015411	0.051423	-0.008087	
0.030365	-0.007477	0.031587	-0.017548	
0.035859	0.004730	-0.014191	-0.013580	
0.029144	0.007782	0.026093	-0.010529	
0.024872	0.019989	0.035554	-0.008087	
0.014801	0.022430	0.016327	-0.015106	
0.003204	0.032502	0.026093	-0.005646	
0.003815	0.039216	-0.008087	0.000153	
0.012970	0.031281	-0.005951	-0.002289	
0.009918	0.020294	-0.026093	0.003815	
-0.010223	0.007782	-0.028534	0.004730	
-0.012970	0.012360	0.028534	0.004120	
-0.025177	0.010223	0.050202	-0.003510	
-0.018158	0.024567	0.034333	-0.000763	
-0.027924	0.004425	0.056611	-0.007477	
-0.043489	-0.025177	0.055085	-0.010223	
-0.023346	-0.030060	0.040132	-0.009003	
-0.015106	-0.011444	0.064546	-0.003204	
-0.027008	-0.017548	0.005951	-0.005646	
-0.022430	-0.008392	0.001678	-0.004120	
-0.029144	-0.005341	-0.066987	-0.013885	
-0.027313	-0.001678	-0.056916	-0.011444	
-0.023041	0.004425	-0.002899	-0.000763	
-0.019989	-0.001373	-0.011749	-0.005341	
-0.017242	-0.015106	0.013275	0.001984	
-0.005035	-0.022430	0.012665	-0.007782	
0.011139	-0.021515	-0.089875	-0.014191	
0.027924	-0.003815	-0.065461	-0.017853	
0.056611	0.018768	0.005341	-0.009003	
0.048066	0.020294	0.024872	-0.012054	
0.034028	0.024567	0.056916	-0.008392	
0.007172	0.014191	0.061494	-0.013580	
-0.001373	0.020905	0.055390	-0.004425	
-0.011139	0.012054	0.019379	-0.001984	
-0.013275	0.008698	0.008087	-0.003510	
-0.030060	0.004730	0.028534	-0.011444	
-0.030975	0.013275	0.039216	-0.012970	
-0.035249	0.015106	0.001068	-0.017242	
-0.037690	0.002899	-0.028534	-0.015411	
-0.025482	-0.015717	-0.002899	-0.016022	
-0.008087	-0.020294	0.002899	-0.010529	
0.002289	-0.008392	-0.015411	-0.004425	
0.015106	0.004425	-0.012970	-0.002289	
0.027924	0.008698	-0.018463	-0.005646	
0.032502	0.017242	0.013885	-0.006866	
0.026093	0.023346	0.055085	-0.001678	
0.009918	0.025177	0.051728	-0.001984	
-0.005341	0.023346	0.041352	-0.003510	
-0.024261	0.004120	-0.029144	-0.005646	
-0.018463	-0.002289	-0.074922	-0.000763	
-0.020294	-0.025482	-0.003815	-0.004425	
-0.011139	-0.039521	0.088960	-0.005035	
-0.009308	-0.029449	0.079499	-0.011749	
-0.005341	-0.011444	0.038606	-0.005951	
-0.024261	-0.013885	-0.009308	-0.009308	
-0.027313	-0.005341	-0.004120	0.000763	
-0.035249	-0.010834	-0.002899	-0.001678	
-0.034333	-0.007782	0.002289	-0.005035	
-0.032502	-0.009003	0.010529	-0.003204	
-0.026398	-0.002899	0.003204	-0.001678	
-0.015717	-0.006866	0.005951	-0.003510	
-0.013885	-0.006866	0.010529	-0.001068	
-0.011749	-0.001678	0.013275	-0.002899	
-0.011139	-0.001373	0.001068	-0.015106	
0.008392	0.003204	0.013275	-0.003204	
0.003815	0.001678	-0.003815	-0.002899	
-0.000153	0.006256	-0.026093	-0.011749	
0.002594	0.005951	-0.020294	-0.015717	
0.019073	0.017242	0.000458	-0.000763	
0.020599	0.014496	0.005951	-0.002899	
0.036469	0.017242	0.014191	0.003815	
0.043794	0.022125	0.004730	-0.005951	
0.040437	0.037995	-0.006866	-0.009918	
0.030975	0.041963	-0.006866	-0.013580	
0.012970	0.034638	-0.005341	-0.011444	
0.008087	0.038301	-0.009308	-0.009613	
-0.017242	0.020905	-0.014191	-0.017548	
-0.039216	-0.001373	0.005951	-0.014496	
-0.048982	-0.037995	0.007172	-0.012970	
-0.054475	-0.045625	0.021210	-0.009918	
-0.052339	-0.034944	0.028534	-0.009308	
-0.040437	-0.014191	0.038911	-0.007172	
-0.032197	-0.013580	0.042878	-0.014496	
-0.024872	-0.012360	0.023346	-0.007477	
-0.017548	-0.016937	-0.026398	-0.011139	
-0.006866	-0.006866	-0.016022	-0.016632	
-0.002289	0.003815	0.005951	-0.016022	
0.016022	0.014496	0.049287	-0.004120	
0.032502	0.017853	0.002899	-0.004425	
0.048371	0.030670	0.006866	0.002289	
0.052033	0.044099	0.041047	0.005951	
0.047761	0.044709	0.093232	0.005035	
0.022736	0.037385	-0.008087	-0.001068	
-0.007782	0.028534	-0.069734	-0.009918	
-0.038911	0.015106	-0.005646	-0.005035	
-0.052033	-0.000153	0.013885	-0.011444	
-0.039216	-0.012970	0.012970	-0.003510	
-0.045320	-0.041352	0.049592	-0.005341	
-0.039216	-0.042573	0.028229	-0.008087	
-0.029449	-0.029755	-0.011444	-0.013580	
-0.005035	0.002289	0.002594	-0.003510	
-0.002899	-0.001373	-0.007172	-0.022736	
0.007782	0.014191	-0.007172	-0.008392	
0.010834	0.022430	-0.017242	-0.012970	
0.029755	0.036775	0.006256	-0.009308	
0.039216	0.032197	0.009918	-0.011749	
0.044404	0.037385	-0.012054	-0.010223	
0.030060	0.048371	-0.027618	0.000458	
0.008392	0.042878	-0.020294	-0.000153	
-0.011444	0.030365	-0.004425	0.002289	
-0.029449	0.013885	0.024261	-0.003510	
-0.028229	-0.011444	0.010223	-0.005646	
-0.031281	-0.032197	-0.025787	-0.007172	
-0.032502	-0.031281	0.023041	-0.004120	
-0.027618	-0.041352	0.003815	-0.004120	
-0.008392	-0.017853	0.020294	0.002289	
-0.001068	-0.013580	0.047151	-0.000763	
-0.001068	-0.008087	-0.003510	-0.005951	
-0.003815	-0.015106	-0.027008	-0.011444	
0.008698	-0.014801	0.000153	-0.003510	
0.005951	-0.016327	0.014496	-0.010223	
0.004730	-0.005646	0.067903	-0.002289	
0.005035	0.002289	0.119783	0.000763	
0.001068	0.002899	0.072480	0.002289	
-0.017853	-0.009918	0.024261	-0.001373	
-0.025177	-0.015717	0.037385	0.002899	
-0.023651	-0.012360	-0.005341	0.000153	
-0.019684	-0.009003	-0.042268	-0.003510	
-0.013885	-0.009003	-0.021210	-0.010529	
-0.017548	-0.012360	0.017242	-0.014496	
-0.013580	-0.007172	0.013275	-0.016632	
-0.012360	-0.003510	0.018463	-0.017548	
-0.005341	0.004120	0.028534	-0.010529	
0.005035	0.006256	-0.039826	-0.015411	
0.030060	0.026093	-0.063020	-0.015717	
0.043794	0.031892	-0.015717	-0.016022	
0.056916	0.046235	-0.013580	-0.009918	
0.049287	0.053559	0.007782	-0.016327	
0.046845	0.066377	0.054780	-0.007782	
0.019989	0.045930	0.019989	-0.010223	
-0.009613	0.032197	-0.012970	-0.005951	
-0.034028	0.002594	0.006866	-0.003510	
-0.060578	-0.027313	0.018463	-0.005646	
-0.071565	-0.055696	0.013275	-0.007172	
-0.080110	-0.062409	0.018158	-0.010529	
-0.073701	-0.057221	0.022430	-0.012360	
-0.039521	-0.042268	0.016327	-0.013580	
-0.014801	-0.019379	0.012665	-0.013275	
-0.015717	-0.016937	0.005341	-0.009918	
-0.011444	-0.009308	0.009918	-0.003510	
-0.013580	-0.015411	-0.002899	-0.009003	
-0.008392	-0.004120	-0.013580	0.000763	
-0.008392	-0.001373	-0.022125	-0.008392	
0.006256	0.005035	-0.008087	-0.010223	
0.011139	0.018158	0.009918	-0.009918	
0.013275	0.028534	0.016937	-0.003510	
0.012970	0.026398	-0.011749	-0.004120	
0.007782	0.034028	-0.015411	0.005341	
0.009003	0.028534	0.002289	-0.001984	
0.016937	0.026703	0.042878	0.001678	
0.020599	0.034333	0.022430	0.003204	
0.025177	0.031281	-0.057832	-0.002899	
0.028534	0.039826	-0.054170	0.000763	
0.008392	0.043183	-0.000763	0.000153	
-0.018463	0.033113	0.029144	-0.003510	
-0.028229	0.019379	0.037385	-0.005646	
-0.019379	0.001984	0.019073	-0.010529	
-0.030975	-0.010834	0.007782	-0.014496	
-0.027924	-0.009308	0.077668	-0.008087	
-0.012360	-0.007782	0.028534	-0.005646	
0.000153	-0.009613	0.010834	-0.000763	
-0.003510	-0.022125	0.031281	-0.005035	
-0.001984	-0.017548	0.038911	-0.001984	
0.016022	0.002899	-0.001678	-0.001678	
0.037995	0.022125	0.028534	-0.004425	
0.048371	0.042268	0.034638	-0.005951	
0.042878	0.032502	0.028839	-0.005035	
0.034944	0.020599	0.033113	-0.004425	
0.022736	0.019989	0.009918	-0.009003	
0.009003	0.030670	0.007782	-0.004120	
-0.020905	0.018158	-0.011749	-0.004120	
-0.022430	-0.017853	-0.012360	-0.003204	
-0.035554	-0.043794	0.000458	-0.003204	
-0.057221	-0.058137	0.030060	-0.003510	
-0.059663	-0.066682	-0.006256	-0.005951	
-0.035554	-0.051423	-0.019989	-0.009003	
-0.028229	-0.033113	-0.017853	-0.011749	
-0.021210	-0.007782	-0.019073	-0.008087	
-0.012054	0.010223	0.028534	-0.013580	
-0.001984	0.013275	0.018158	-0.010529	
0.014191	0.022125	-0.010223	-0.007477	
0.028839	0.036775	0.012665	-0.005951	
0.019684	0.036469	0.026703	-0.010223	
0.003815	0.021210	0.017853	-0.011749	
0.006561	0.016632	0.018768	-0.015106	
0.006561	0.012665	-0.018463	-0.015717	
-0.009003	-0.001068	-0.044709	-0.005646	
-0.017548	-0.035249	-0.019989	-0.005341	
-0.013885	-0.031587	0.019073	-0.008392	
-0.035249	-0.034333	-0.013580	-0.012360	
-0.035249	-0.022430	0.086213	-0.005951	
-0.034944	-0.010834	0.046540	-0.016022	
-0.026093	0.000458	-0.031892	-0.005951	
-0.022430	-0.002289	-0.003815	-0.008392	
-0.007782	0.014801	0.014496	0.000153	
-0.009613	0.019989	-0.001068	-0.005951	
-0.003815	0.030670	0.006256	-0.003204	
0.005646	0.020599	-0.008087	0.001678	
-0.010834	-0.002899	-0.027618	0.000153	
-0.027618	-0.016327	0.003204	-0.000763	
-0.019684	-0.008392	0.019379	0.002899	
-0.022430	0.001984	0.044404	0.002899	
-0.029144	-0.002289	0.027008	-0.010529	
-0.009308	-0.003815	0.004120	-0.015106	
-0.009613	-0.002899	-0.000763	-0.019073	
-0.017853	0.003204	-0.029144	-0.013580	
-0.023956	0.002594	-0.037385	-0.015717	
0.003815	0.010529	0.023041	-0.007782	
0.026398	0.007782	0.070954	-0.009003	
0.045014	0.021210	0.067597	0.002594	
0.034333	0.024872	0.041657	-0.000153	
0.034028	0.031281	0.065766	0.002594	
0.028839	0.028839	0.004730	-0.004120	
0.030670	0.030670	-0.021515	-0.001373	
0.019989	0.027313	-0.006256	0.000153	
0.012665	0.022430	-0.039216	-0.003510	
0.002289	0.014191	-0.044709	-0.002899	
-0.005646	0.004120	-0.016937	-0.000763	
-0.007172	0.002289	0.018158	0.002899	
-0.003204	0.002594	0.053864	-0.005035	
-0.002289	0.009308	0.045014	-0.005035	
-0.005035	0.000763	0.013275	-0.009308	
-0.001373	0.007172	-0.010223	-0.005646	
0.002594	0.012970	0.022430	-0.007172	
0.014496	0.019379	0.018768	-0.003510	
0.016937	0.022736	-0.068818	-0.007782	
0.020599	0.026093	-0.053559	-0.006866	
0.015717	0.017853	0.036469	-0.017548	
0.016327	0.009003	0.079194	-0.011139	
-0.002289	-0.012970	0.008698	-0.016327	
-0.019989	-0.017853	-0.000153	-0.004425	
-0.043794	-0.023651	-0.000763	-0.002899	
-0.063325	-0.042573	0.018463	0.002594	
-0.073091	-0.053254	0.023041	-0.003815	
-0.058137	-0.048676	0.011749	-0.003815	
-0.055390	-0.043794	0.001984	-0.011749	
-0.035554	-0.013885	-0.003204	-0.009918	
-0.023651	-0.000763	-0.005646	-0.003204	
-0.012360	-0.005646	0.001984	-0.008392	
0.002289	-0.010834	0.005341	-0.007172	
0.006561	-0.004120	0.016022	-0.006866	
0.010834	0.002899	0.019073	-0.011139	
0.016327	0.006256	0.012665	-0.017242	
0.036775	0.023956	0.010529	-0.007782	
0.012360	0.023956	-0.001678	-0.018463	
-0.003815	0.027924	-0.011139	-0.009613	
0.000153	0.028229	-0.023346	-0.005646	
-0.001068	0.028839	-0.015106	-0.008392	
-0.012970	0.016632	0.006866	-0.010223	
-0.026093	0.009003	0.010529	-0.014496	
-0.016327	0.008698	-0.005646	-0.008392	
-0.010223	0.004425	0.010529	-0.005035	
-0.012360	-0.012360	0.027008	-0.004425	
-0.021210	-0.026093	0.001984	-0.007477	
-0.005646	-0.022125	0.011139	-0.002289	
-0.003815	-0.030060	0.012665	-0.012054	
0.002594	-0.017853	0.072480	-0.005646	
0.002899	-0.009613	0.067597	-0.011749	
0.014191	0.006866	0.034333	-0.003510	
0.013275	0.010223	-0.015717	-0.011139	
0.023651	0.030365	-0.031892	-0.005951	
0.028534	0.032197	-0.012970	-0.016022	
0.040742	0.038301	0.004730	-0.012054	
0.029144	0.036775	0.009003	-0.014191	
0.012665	0.026703	-0.025787	-0.011749	
-0.016937	0.005951	-0.005951	-0.005646	
-0.043489	-0.014801	0.008698	-0.005341	
-0.048371	-0.019379	0.047761	-0.010529	
-0.051118	-0.033113	0.027008	-0.012970	
-0.030365	-0.035554	-0.001373	-0.013885	
-0.014801	-0.026398	0.051728	-0.004425	
-0.006256	-0.021515	0.004120	0.000763	
-0.004425	-0.019073	-0.003815	-0.009918	
0.030365	0.005035	0.022125	-0.002899	
0.042878	0.026093	0.005341	-0.007477	
0.022736	0.039216	0.004730	-0.001068	
-0.001373	0.031892	0.002899	-0.001984	
-0.013580	0.031892	0.006256	-0.000763	
-0.034944	0.013885	0.005341	-0.007172	
-0.039216	0.008392	0.002594	-0.009308	
-0.048371	-0.022430	-0.000153	-0.012054	
-0.053254	-0.027008	0.005341	-0.005646	
-0.047151	-0.027924	0.011139	-0.006256	
-0.035249	-0.025787	0.007782	-0.007782	
-0.034028	-0.025482	0.005035	-0.009308	
-0.020294	-0.009613	0.008392	0.000763	
-0.003815	0.004120	0.011139	-0.007172	
0.013885	0.013275	0.008087	-0.006866	
0.030975	0.022430	0.019989	0.002289	
0.032807	0.020905	0.018768	-0.003510	
0.041047	0.031281	0.023041	0.000153	
0.036469	0.040132	0.004730	-0.009003	
0.020294	0.039826	-0.003204	-0.004425	
0.009918	0.024872	-0.001678	-0.006866	
0.003815	0.025787	-0.005341	-0.010529	
-0.017242	0.014801	-0.034638	-0.012054	
-0.025177	-0.000763	-0.070344	-0.004425	
-0.012360	-0.007172	-0.066682	-0.009308	
-0.000763	0.005951	-0.015106	-0.001984	
-0.039826	-0.005341	0.067903	0.008087	
-0.048982	-0.009918	0.084992	0.002899	
-0.042878	-0.011444	0.033418	-0.001068	
-0.045320	-0.019989	0.023041	-0.010223	
-0.031281	-0.032502	0.052339	-0.005035	
0.001984	-0.037995	0.067597	-0.009003	
0.027008	-0.020905	0.067292	-0.003510	
0.019073	-0.016937	0.070039	-0.014496	
0.016632	0.002899	0.012054	-0.005035	
0.012970	0.002899	-0.091706	-0.009003	
0.007782	0.008698	-0.069734	-0.005035	
0.006866	0.007782	-0.027618	-0.011749	
0.012665	0.015106	-0.023346	-0.016632	
0.017853	0.023346	0.005951	-0.009003	
0.030975	0.034944	0.001984	-0.002899	
0.024567	0.032807	0.013885	-0.010223	
0.020599	0.030365	0.014801	-0.005646	
0.011139	0.030975	0.014496	-0.001678	
-0.011139	0.012054	0.006866	-0.000763	
-0.025177	0.000153	0.004730	-0.001984	
-0.033418	-0.008087	0.000458	-0.000153	
-0.029755	-0.003204	0.010529	0.000763	
-0.019684	0.004120	0.008087	-0.005035	
0.009003	0.012970	0.009918	-0.001678	
0.016327	0.011139	-0.002289	-0.016022	
0.026093	0.028839	0.002899	-0.009613	
0.001068	0.033113	0.000763	-0.014496	
-0.023346	0.018463	0.016937	-0.016327	
-0.035249	-0.002899	0.039216	-0.023346	
-0.027008	-0.003815	0.016022	-0.017242	
-0.000763	-0.001678	-0.006256	-0.014191	
-0.001984	-0.019073	-0.009613	-0.016327	
-0.033113	-0.033113	0.000153	-0.007782	
-0.031281	-0.028534	0.016327	-0.007782	
-0.020905	-0.025482	0.004120	-0.007172	
0.000458	-0.007172	0.034333	0.000763	
0.000153	0.004120	0.047761	0.001678	
-0.010834	0.004730	0.020294	0.003815	
-0.012360	0.007782	0.038606	0.005951	
-0.025482	-0.013885	-0.021515	-0.001678	
-0.037080	-0.030060	-0.011139	0.000153	
-0.035554	-0.025482	0.037690	-0.010223	
-0.023956	-0.013885	0.028839	-0.011139	
-0.026398	-0.022125	-0.014191	-0.021820	
-0.005951	-0.006256	0.001984	-0.005341	
-0.000153	-0.005646	-0.009308	-0.010529	
0.016937	0.006561	0.004730	-0.001678	
0.021210	0.012054	0.005341	-0.011444	
0.027313	0.031281	0.002594	-0.008392	
0.027924	0.030670	-0.005646	-0.009918	
0.038301	0.036164	-0.003510	-0.007782	
0.052949	0.041047	-0.001373	-0.011444	
0.056001	0.050508	0.001678	-0.009308	
0.037080	0.052339	0.008698	-0.007782	
0.007782	0.042878	0.014801	-0.011749	
-0.019073	0.017242	0.018463	-0.009918	
-0.041352	-0.012970	-0.001678	-0.015411	
-0.057221	-0.049592	0.036775	-0.007477	
-0.078584	-0.069123	0.030670	-0.001678	
-0.073396	-0.059052	0.006256	-0.005035	
-0.053559	-0.048066	0.030975	-0.012054	
-0.028839	-0.025787	-0.016327	-0.005646	
-0.020294	-0.015717	-0.023346	-0.007477	
-0.010223	0.000153	-0.005341	-0.003510	
-0.003204	0.004120	0.023956	-0.006256	
0.005035	0.012970	-0.001678	-0.003204	
0.013275	0.019379	0.044404	-0.001678	
0.026398	0.027313	0.059663	-0.009003	
0.030975	0.023956	0.017242	-0.009613	
0.031892	0.031281	-0.079194	-0.000763	
0.028839	0.030670	0.005035	0.002899	
0.023041	0.029144	0.043183	0.002289	
0.003815	0.036469	0.023041	0.000153	
-0.013885	0.023041	0.003815	-0.004425	
-0.014191	0.013275	0.022125	0.002899	
-0.013885	0.007172	0.019989	-0.001984	
-0.018158	0.004730	0.000153	-0.005951	
-0.016327	-0.006256	0.002594	-0.004425	
-0.008087	-0.000763	0.040742	-0.002899	
-0.009308	-0.010834	0.010529	-0.009918	
0.012970	-0.001373	-0.063020	-0.004425	
0.021210	0.010529	-0.027313	-0.013580	
0.029755	0.030365	-0.012360	-0.009003	
0.019073	0.039826	-0.002899	-0.012970	
0.000153	0.033113	0.050508	-0.015106	
-0.019073	0.008087	0.052949	-0.016022	
-0.041352	-0.019073	0.003204	-0.012970	
-0.037080	-0.030060	0.027008	-0.007782	
-0.043794	-0.051423	0.047151	-0.014191	
-0.034028	-0.046540	0.008087	-0.008392	
-0.027618	-0.041047	-0.034333	-0.009613	
-0.029449	-0.037690	-0.019684	-0.001373	
-0.023346	-0.029755	-0.018463	-0.003510	
-0.007477	-0.010223	0.030975	-0.005035	
-0.007782	-0.011444	0.030060	-0.006256	
0.005035	-0.004120	0.011749	-0.005951	
0.018158	0.009003	-0.005035	-0.009918	
0.038606	0.020599	-0.005341	-0.008392	
0.040742	0.030670	0.005951	-0.015717	
0.040437	0.038911	0.053559	-0.005035	
0.020294	0.026093	0.049287	-0.004425	
-0.001068	0.023956	-0.029449	0.001678	
-0.017242	0.026093	-0.047761	-0.001678	
-0.024261	0.016022	-0.040437	-0.002899	
-0.025482	-0.001373	-0.009918	-0.004120	
-0.018463	-0.000763	0.005341	-0.006256	
-0.013580	0.009003	0.016327	-0.008392	
-0.012360	0.006561	0.010223	-0.017853	
-0.003510	0.009308	0.020294	-0.003204	
-0.028229	-0.007782	0.018768	-0.008087	
-0.033418	-0.017548	0.018463	-0.002899	
-0.022430	-0.008087	0.005341	-0.006256	
-0.015106	0.003815	0.005341	-0.003815	
-0.014191	0.002289	0.002594	0.000763	
-0.001678	0.012360	-0.001678	-0.000763	
-0.007172	0.003204	0.001984	-0.011139	
0.001984	0.008698	0.005035	-0.005646	
0.005646	0.013885	0.007172	-0.007477	
0.007782	0.031281	0.036164	-0.007172	
0.005035	0.025177	0.016327	-0.012054	
-0.006866	0.025177	-0.008392	-0.003510	
-0.016022	0.021210	-0.001068	0.000153	
-0.015717	-0.009918	0.005951	-0.003204	
-0.005646	-0.015106	0.027313	0.002899	
-0.000153	-0.007782	0.011139	-0.010529	
0.016327	0.000153	-0.003510	-0.010223	
0.006561	-0.004120	-0.008087	-0.015106	
0.010529	0.003204	-0.007477	-0.007782	
0.010834	-0.000763	-0.003204	-0.009308	
0.018463	0.005035	0.010529	-0.001678	
0.006256	0.001984	0.033113	-0.008392	
0.008087	0.007782	0.051118	-0.005951	
-0.011139	-0.008087	0.017242	-0.017853	
-0.031281	-0.005951	0.041352	-0.008392	
-0.039826	-0.005951	0.035554	-0.012054	
-0.017548	-0.001068	0.019073	-0.006866	
-0.005341	-0.013885	0.010529	-0.016022	
-0.001984	-0.008392	0.010529	-0.016022	
-0.005646	0.004425	0.014496	-0.010223	
-0.025482	-0.004120	0.008698	-0.016632	
-0.019073	-0.006256	0.004120	-0.006866	
-0.027008	-0.003510	-0.002289	-0.007172	
-0.014191	0.006256	0.006866	-0.003510	
-0.001678	-0.000763	0.002899	-0.010529	
0.017853	-0.003510	0.009918	0.000763	
0.002594	-0.016937	-0.004120	-0.002899	
-0.009003	-0.007782	-0.026398	0.006561	
-0.008392	0.007172	-0.039216	0.005951	
0.009918	0.037080	-0.008392	0.007172	
0.013885	0.037385	0.007172	-0.001984	
0.017853	0.030670	0.043183	-0.001678	
0.012665	0.016022	0.106356	-0.008087	
0.004120	0.014496	0.064546	-0.005646	
-0.019684	0.017853	-0.048676	-0.000153	
-0.036469	0.016937	-0.009918	0.000153	
-0.029755	0.011749	0.003204	-0.003815	
-0.024872	-0.013885	0.009918	-0.009918	
-0.019989	-0.037080	0.036775	-0.011139	
0.002594	-0.046540	0.036469	-0.013885	
0.027313	-0.034028	0.016632	-0.005646	
0.036469	-0.019073	-0.015411	-0.013580	
0.033723	0.001984	-0.035249	-0.010529	
