NO_OF_SAMPLES	4800
TOT_NO_OF_CHAN	4
FREQUENCY	960.000000
NO_OF_CALC_CHAN	0
TIME_STAMP	2020-02-08, 11:24:41	226559.52274590
FIRST_SAMPLE	1
DESCRIPTION	--
DATA_INCLUDED	Analog
CHANNEL_NAMES	Vastus Lateralis	Vastus Medialis	Tibialis Anterior	Lateral Gastroc
CHANNEL_GAIN	1	1	1	1
FP_LOCATION
FP_CAL
FP_GAIN
Vastus Lateralis	Vastus Medialis	Tibialis Anterior	Lateral Gastroc	
-0.036469	-0.006866	0.015411	0.004120	
-0.009308	-0.002899	0.016327	-0.001984	
0.023651	0.008698	0.014801	-0.004425	
0.013275	0.008087	0.008392	0.001068	
0.008087	0.016632	0.008392	-0.004120	
0.004120	0.027008	0.007172	-0.011749	
-0.009613	0.017853	0.002289	-0.015717	
-0.019989	0.014191	0.010834	-0.010223	
-0.024872	0.005646	0.007782	-0.036469	
-0.006256	0.010529	0.005951	-0.046540	
-0.004425	0.009003	0.002594	-0.023346	
-0.006866	0.008698	0.012665	0.008087	
-0.005646	0.000763	0.009003	0.010834	
-0.014191	0.002594	0.009003	0.008087	
-0.087434	0.008087	0.020599	-0.007172	
-0.053559	0.007782	0.026093	0.030975	
0.052339	0.001068	0.018768	0.045320	
0.059358	0.001984	0.004425	-0.022125	
0.033723	0.003204	-0.000153	0.006561	
0.029755	0.012360	0.001984	0.047456	
0.023651	0.014191	-0.000763	0.041047	
-0.008392	0.022125	-0.007172	0.020905	
-0.033418	0.020905	-0.003204	0.034638	
-0.033418	-0.006866	-0.006866	0.037690	
0.025177	-0.015717	0.002899	0.016632	
0.034333	-0.029449	0.003815	-0.034944	
-0.015411	-0.026398	0.003204	-0.078889	
-0.021820	-0.023346	-0.003510	-0.086823	
-0.000153	-0.005646	0.000153	-0.047761	
0.024872	0.008087	0.001068	-0.007477	
0.037080	0.028839	0.013275	0.070039	
0.018463	0.029755	0.014801	0.030365	
0.000153	0.004425	0.015411	-0.111238	
-0.023956	0.004425	0.012665	-0.099337	
-0.038301	0.008392	0.012970	-0.047151	
-0.047456	-0.004120	0.011749	-0.117342	
-0.001373	0.006256	0.019379	0.026093	
0.036469	0.009308	0.020599	0.120089	
0.025787	0.005951	0.020294	0.000458	
0.000153	-0.002289	0.010529	0.103914	
-0.029755	0.000458	0.003204	0.112459	
-0.033418	0.014801	0.012054	0.078279	
-0.042878	0.012970	0.001678	0.115816	
-0.037080	0.011749	-0.001678	0.039826	
-0.023651	0.000153	-0.007172	-0.005646	
0.020599	0.000763	0.008698	0.008698	
0.064240	-0.012360	0.002289	0.011444	
0.025787	-0.011139	0.003815	-0.046540	
0.020599	-0.004425	0.003204	-0.083467	
0.117037	-0.001068	0.002594	-0.078889	
0.058747	-0.012054	-0.000153	-0.080415	
-0.056306	-0.015717	0.001984	-0.119478	
-0.116732	-0.019073	0.002899	-0.233006	
-0.113985	0.007782	0.012970	-0.221714	
-0.106050	0.012970	0.016022	-0.072785	
-0.078584	0.012970	0.016327	-0.046540	
-0.041657	-0.001984	0.015106	0.023651	
-0.015411	-0.014191	0.021210	0.189059	
-0.016022	-0.012054	0.027924	0.199740	
-0.015106	-0.015717	0.007782	0.066072	
0.008698	-0.011444	0.002289	0.080110	
0.006866	-0.009918	-0.014496	0.161593	
0.014191	0.010529	-0.002289	0.210116	
0.006561	0.005035	0.005341	0.022736	
0.020599	0.005035	0.028839	-0.027924	
0.035249	0.017242	0.031281	-0.000153	
0.056306	0.040742	0.012970	-0.034638	
0.034028	0.062715	0.012970	0.009003	
-0.014801	0.064240	0.012665	-0.006866	
-0.117647	0.057527	0.007782	-0.083467	
-0.124361	0.060884	0.002594	-0.091096	
-0.003204	0.045014	0.016937	0.019989	
0.042268	0.002899	0.010834	0.065461	
0.072785	-0.035554	0.005951	-0.053254	
0.063325	-0.075532	0.005035	-0.061799	
0.067903	-0.071870	-0.000153	-0.074922	
0.063325	-0.046235	-0.008392	-0.116732	
0.052949	-0.019379	0.000458	-0.192416	
0.021210	-0.012054	0.005951	-0.233006	
-0.001068	-0.004120	0.014191	-0.090486	
0.004730	-0.004425	0.014191	0.017242	
0.014801	-0.003204	0.007782	0.092317	
-0.009003	-0.004120	0.004425	0.243382	
-0.001068	-0.002289	0.011749	0.128328	
0.068208	0.001678	0.007172	0.049287	
0.078279	0.021820	0.009308	0.083467	
0.051728	0.029755	0.013275	0.078279	
0.032197	0.028229	0.012665	0.019989	
-0.052949	0.011749	-0.000153	-0.006256	
-0.101778	0.008392	-0.007477	-0.015717	
-0.149385	-0.001373	0.002289	-0.015411	
-0.162814	-0.021820	0.012054	-0.017853	
-0.095369	-0.012970	0.013885	-0.021515	
-0.041352	-0.023956	0.004730	-0.034028	
-0.039216	-0.009003	0.006561	-0.036775	
-0.071259	-0.008392	0.006866	-0.036775	
-0.020294	-0.020905	0.005341	-0.037385	
0.029755	-0.016937	0.003815	-0.039521	
0.042268	0.003204	0.012665	-0.029755	
0.017853	0.003815	0.006866	-0.034028	
0.007782	0.015106	0.016022	-0.024567	
0.004120	0.016632	0.006866	-0.029755	
0.015106	0.026703	0.004120	-0.031892	
0.005951	0.020599	0.010529	-0.034638	
0.008392	0.021820	0.013275	-0.022125	
0.006256	0.029755	0.017242	-0.018463	
-0.005646	0.022736	0.016632	-0.012360	
-0.005951	0.018768	0.014496	-0.006256	
-0.009003	0.007782	0.006561	-0.011749	
0.003815	0.005951	0.014496	-0.009308	
0.005035	0.001678	0.015411	-0.003510	
0.006866	-0.002899	0.016022	-0.009003	
0.053864	-0.005341	0.008698	-0.011749	
0.127108	0.009918	0.016327	0.008087	
0.099947	0.006866	0.008698	0.015106	
0.050813	0.013885	0.017242	0.020905	
-0.011444	0.001068	0.000153	-0.009003	
-0.048371	0.003815	-0.005341	-0.007172	
-0.064546	0.001678	0.001068	-0.032502	
-0.075227	0.008392	0.014191	-0.021515	
-0.110323	0.007172	0.011139	-0.042268	
-0.127718	0.016632	0.008698	-0.116121	
-0.124056	0.008087	0.005951	-0.138094	
-0.056306	0.014801	-0.003815	-0.097811	
0.044404	0.015106	-0.001068	-0.027618	
0.066682	0.003815	-0.003204	0.094454	
0.035859	0.003204	0.013275	0.269321	
0.000458	-0.008392	0.004425	0.050202	
-0.013885	-0.018158	0.012665	-0.098726	
-0.005341	-0.033418	0.014191	0.063325	
0.013275	-0.026093	0.015411	0.084687	
0.041352	-0.012360	0.005035	-0.086518	
0.144503	-0.007477	-0.004425	-0.129244	
0.171664	-0.023041	-0.003815	-0.124971	
0.080720	-0.025177	0.001984	-0.072480	
0.015717	-0.021515	0.010529	0.130465	
-0.046540	-0.012970	0.024567	0.054170	
-0.111849	-0.005646	0.024261	0.128633	
-0.047761	0.024261	0.014191	0.100252	
0.005035	0.056306	0.004120	0.050202	
-0.067292	0.073396	0.004425	0.095980	
-0.106356	0.062409	0.000153	0.208285	
-0.007172	0.056611	-0.001678	0.056916	
0.032807	0.053254	0.000458	0.019989	
0.022736	0.016022	0.005951	0.088349	
-0.016937	0.002289	0.008392	0.008087	
-0.069428	-0.021820	-0.002289	-0.031587	
-0.071565	-0.034028	-0.004425	-0.078279	
-0.043794	-0.044404	-0.001068	-0.100863	
-0.012360	-0.030365	0.022125	-0.034333	
0.005951	-0.014801	0.029144	-0.044099	
0.009918	-0.001373	0.017853	-0.078279	
0.010529	0.000458	0.019989	-0.043489	
0.011749	-0.001068	0.026093	-0.007782	
0.008698	-0.007172	0.015411	0.043794	
0.007172	-0.009613	0.018768	0.009003	
0.025787	-0.004120	0.019073	-0.050813	
0.044404	0.008698	0.007172	-0.070344	
0.058137	0.025177	0.002594	-0.079194	
0.055085	0.028229	0.007782	-0.056611	
0.032807	0.046235	0.019379	-0.034638	
0.012665	0.037995	0.012054	-0.009918	
-0.008087	0.014801	0.013275	0.042878	
-0.019989	-0.004425	0.005951	0.008087	
-0.022125	-0.012054	0.005341	-0.065461	
-0.044099	-0.033723	0.002594	-0.082856	
-0.060578	-0.029755	0.016632	-0.044709	
-0.075837	-0.037080	0.006561	-0.054170	
-0.072480	-0.010223	0.004730	-0.064240	
-0.077668	0.024567	0.002289	-0.005035	
-0.045625	0.048982	-0.002289	0.061494	
-0.037385	0.077058	-0.011139	0.033723	
-0.039826	0.064240	-0.011139	0.024872	
0.003815	0.015106	0.008698	-0.020294	
-0.005646	-0.034028	0.015411	-0.052644	
0.048066	-0.041963	0.017853	-0.067903	
0.220798	-0.041963	0.012665	-0.026703	
0.208591	-0.039216	0.015411	0.073396	
0.053254	-0.013580	0.016327	0.236057	
-0.014191	0.030670	0.018463	0.082551	
-0.043183	0.052033	0.007782	-0.062409	
-0.061799	0.070649	0.007172	-0.015106	
-0.133516	0.062715	-0.003204	0.027008	
-0.186007	0.038301	0.001678	0.025177	
-0.165866	0.012665	0.004730	0.005951	
-0.063020	-0.014801	0.001068	-0.012970	
0.057832	-0.068208	0.000458	-0.023651	
0.073091	-0.112459	0.008087	-0.013885	
0.076142	-0.093537	0.014191	-0.009003	
0.056001	-0.027313	0.015411	-0.024261	
0.012970	-0.027008	0.012054	-0.031892	
0.076142	0.004120	0.005951	-0.016327	
0.128633	0.045014	0.002289	-0.021210	
0.069428	0.045014	0.002289	-0.060578	
0.013275	0.026398	0.012054	-0.068818	
-0.032502	0.013275	0.008087	-0.076142	
-0.069428	0.008698	0.009918	-0.139315	
-0.092011	-0.007172	0.008392	-0.134432	
-0.078279	-0.008392	0.021210	0.111849	
-0.053864	-0.020294	0.019073	0.090486	
-0.019073	0.000153	0.026398	-0.160678	
0.002899	0.044099	0.012054	-0.131075	
0.037080	0.040742	0.021515	0.183871	
0.018463	0.003815	0.025177	0.136873	
0.013275	-0.000763	0.018158	0.124361	
0.029144	-0.001984	0.005951	0.094454	
-0.039216	-0.012970	-0.002899	0.018158	
-0.051728	-0.008087	-0.011749	0.011444	
0.023651	0.005951	-0.029755	0.000763	
0.038606	0.037080	-0.009613	-0.048982	
0.036164	0.063020	0.008698	-0.073396	
0.012054	0.068818	0.010529	0.016327	
-0.039216	0.056306	-0.001068	0.003815	
-0.071565	0.043183	-0.002899	-0.017242	
-0.065766	0.005646	-0.024261	-0.042573	
0.004120	-0.034333	-0.040132	0.028839	
0.040132	-0.081941	0.028534	0.046845	
0.035859	-0.055085	0.088044	0.005035	
-0.001678	-0.031587	0.052339	0.002594	
-0.027008	-0.011139	0.022125	-0.000763	
-0.058442	-0.027924	0.016022	-0.017548	
-0.041047	-0.025787	0.012665	-0.019684	
-0.019684	-0.006256	0.012665	-0.046235	
-0.009613	0.008698	0.014191	-0.108797	
-0.009613	0.015106	0.012054	-0.196994	
-0.014191	0.001984	0.010834	-0.335546	
-0.009003	-0.001068	0.022736	-0.454261	
0.000153	0.009003	0.028839	-0.376745	
0.004730	0.010834	0.025482	0.098726	
0.002289	0.004120	0.016937	0.276951	
0.010223	0.009003	0.013885	0.215610	
-0.000763	0.010834	-0.001678	0.460975	
-0.005341	0.023956	0.008698	0.422217	
0.046540	0.020294	0.016022	0.125887	
0.163424	0.018768	0.016937	0.090180	
0.148470	-0.009918	0.006866	0.109102	
0.024872	-0.010223	0.006256	0.092011	
-0.075837	-0.003815	-0.003815	0.074006	
-0.082246	0.007172	-0.006866	0.074311	
-0.063935	0.008392	-0.014496	0.004120	
-0.065766	0.008087	-0.017853	-0.031587	
-0.093232	-0.001068	-0.005951	-0.029755	
-0.103304	0.002899	-0.004425	-0.038606	
-0.048982	0.008698	-0.010834	-0.035859	
0.006561	-0.001984	-0.024261	-0.091096	
0.045320	-0.008392	-0.013275	-0.109102	
0.026703	-0.016327	-0.019684	-0.133821	
0.010529	-0.010834	-0.019684	-0.241550	
0.002289	-0.013885	-0.023956	-0.344397	
0.014801	-0.005341	-0.009918	-0.422828	
0.008698	-0.016022	0.018768	-0.797284	
0.013275	-0.016937	0.061494	-0.703288	
0.012360	-0.025787	0.092622	0.075837	
0.016327	0.007782	0.080720	0.138704	
0.022430	0.016937	0.036775	-0.269627	
0.024872	-0.006256	0.013885	0.440833	
0.014191	-0.019379	0.009918	1.171130	
0.013885	-0.019379	-0.003510	0.712443	
0.027924	-0.009918	-0.013580	0.161593	
0.039826	0.000153	-0.014496	0.070954	
0.038606	0.025177	-0.012360	0.140230	
0.008698	0.033418	-0.005951	0.028229	
-0.018158	0.048371	0.010223	-0.062409	
-0.056001	0.052033	0.009003	-0.006256	
-0.090180	0.075227	0.019989	0.083161	
-0.106050	0.050508	0.006256	0.066987	
-0.070954	0.052949	0.011139	0.249485	
-0.094454	0.071565	0.006866	0.339818	
-0.121309	0.051118	0.004425	0.181125	
-0.050202	-0.003815	0.001068	0.016937	
0.005646	-0.043794	0.000153	0.066987	
0.114595	-0.050508	0.001678	-0.133516	
0.244907	-0.042268	-0.001373	-0.443885	
0.177157	-0.029755	-0.005646	-0.600138	
0.038301	-0.011139	-0.003204	-0.307469	
-0.045014	0.010223	0.008087	-0.294652	
-0.070039	0.031281	0.029144	-0.115511	
-0.051118	0.020599	0.024872	0.474098	
-0.048982	0.011749	0.006866	0.104525	
-0.027008	0.019379	-0.006866	-0.098726	
0.010529	0.011749	-0.017548	0.001678	
0.010529	0.018768	-0.001373	-0.122225	
0.011139	-0.009918	0.005035	-0.319676	
0.032197	-0.028229	0.025482	0.024872	
-0.043489	-0.056611	0.026093	0.442664	
-0.054475	-0.057527	0.023956	0.141451	
-0.001678	-0.037995	0.025482	-0.017548	
0.042268	-0.007172	0.008392	0.105135	
0.029755	0.011749	0.000458	0.244297	
-0.006256	0.030975	0.003204	-0.036469	
-0.050508	0.028229	0.005035	-0.094759	
-0.083467	0.019073	-0.000153	-0.063325	
-0.052033	0.005035	0.001984	-0.097811	
0.019989	0.016632	0.008087	-0.023651	
0.033723	0.042573	0.015411	0.051423	
0.014191	0.055390	0.008392	-0.050813	
0.031892	0.059968	0.011139	-0.063325	
-0.004120	0.030975	0.003204	-0.059052	
-0.027924	0.004730	0.013885	-0.064546	
-0.040132	-0.030975	0.012665	-0.077058	
-0.016022	-0.061799	0.012665	-0.080415	
-0.008087	-0.062715	0.012665	-0.074006	
-0.049592	-0.051118	0.014496	-0.062715	
-0.092622	-0.034944	0.004730	-0.065156	
-0.087434	-0.016937	0.003204	-0.054475	
-0.095064	0.001678	0.009003	-0.045930	
-0.068208	-0.004120	0.005035	-0.041657	
-0.015106	-0.008392	0.005341	-0.033418	
0.002594	0.012665	0.004730	-0.029755	
0.004730	0.020905	0.008087	-0.018158	
0.043794	0.021820	0.011139	-0.028839	
0.098116	0.029144	0.020294	-0.056916	
0.079804	0.007782	0.014801	-0.047761	
0.056916	0.018158	0.028229	-0.034333	
0.028534	0.014801	0.019073	0.013885	
0.024872	0.010834	0.016632	0.032807	
0.012360	0.003815	0.004730	-0.014191	
0.016937	0.010529	0.008392	0.006561	
0.010529	0.007172	0.015411	0.006866	
0.013275	0.014801	0.007782	0.015106	
-0.001068	0.004425	-0.001373	0.006256	
-0.013885	0.010834	0.038911	0.016022	
-0.016327	0.013885	0.063630	0.009918	
0.012054	0.010529	0.024261	0.007172	
0.037995	-0.008392	-0.056001	0.006866	
0.040742	-0.012054	-0.113985	0.012665	
0.020599	-0.023041	-0.155184	0.011444	
-0.007782	-0.029755	-0.146639	0.022736	
-0.026398	-0.018463	0.034638	0.030975	
-0.039216	-0.002899	0.188144	-0.019684	
-0.031892	0.012970	0.107882	-0.045930	
-0.019989	0.029144	0.014496	-0.069428	
-0.042268	0.036164	0.017242	-0.207370	
-0.085603	0.034028	0.018463	-0.320592	
-0.048066	0.029755	0.019073	-0.364538	
0.009613	0.009003	0.024567	-0.176852	
0.051118	0.007172	0.034028	0.235752	
0.050508	0.001678	0.038606	0.263828	
0.027924	0.014191	0.029144	0.172275	
-0.008392	0.007172	0.027924	0.262608	
-0.029449	0.012665	0.027924	0.186923	
-0.027618	0.008087	0.022125	0.224155	
-0.007782	0.004425	0.011139	0.308080	
0.003204	0.011139	0.000458	0.228428	
-0.009613	0.003204	-0.008087	0.096285	
-0.044404	-0.009003	-0.010223	0.043183	
-0.061799	-0.013885	-0.009613	0.012970	
-0.025177	0.005035	0.002594	-0.013580	
-0.017242	0.000458	0.001678	-0.038606	
-0.011139	-0.005341	0.002289	-0.051728	
-0.024261	-0.037080	-0.002289	-0.074922	
-0.003204	-0.034333	0.001068	-0.072480	
0.042268	-0.034333	-0.007477	-0.071565	
0.081025	-0.035859	-0.008087	-0.063020	
0.028229	-0.025177	-0.012360	-0.126497	
0.000458	-0.000763	-0.009003	-0.311437	
-0.020294	0.003204	-0.010834	-0.416114	
-0.041657	0.004730	0.002594	-0.260166	
0.046235	-0.001678	0.030975	0.000763	
0.162509	0.005951	0.043489	0.058137	
0.080415	0.038301	0.050813	-0.121920	
-0.019073	0.066987	0.030060	-0.092317	
-0.100252	0.049287	0.001984	0.229649	
-0.111849	0.031892	-0.020599	0.272068	
-0.064240	0.012054	-0.013885	0.181735	
-0.050202	-0.040437	-0.016327	0.069734	
-0.085298	-0.051423	-0.001068	0.014191	
-0.139315	-0.041352	0.015411	0.031281	
-0.169833	-0.010834	0.019989	0.021515	
-0.111849	-0.001068	0.011139	0.026093	
0.005035	0.034028	0.017242	0.049287	
-0.013275	0.010834	0.007172	0.016632	
-0.030365	0.010529	0.010529	-0.040742	
0.061799	0.002594	0.001984	-0.000763	
0.108187	-0.008087	-0.001678	0.032502	
0.122225	-0.006256	0.006256	0.020294	
0.119173	-0.005341	0.011749	0.002289	
0.073091	-0.001068	0.004120	0.026703	
0.035249	0.000153	0.007172	-0.013885	
0.056611	-0.001984	0.005951	-0.044099	
0.075837	0.024872	0.002594	-0.046540	
0.099031	0.051118	0.007782	-0.042268	
0.082551	0.039826	0.008392	-0.039521	
0.012360	0.036164	0.022736	-0.040132	
-0.031281	0.022430	0.022430	-0.061799	
-0.065461	0.007172	0.030670	-0.064546	
-0.131990	-0.013885	0.013885	-0.066682	
-0.129244	-0.015106	0.004120	-0.076753	
-0.084992	-0.054475	-0.008087	-0.150911	
-0.063020	-0.057832	-0.022125	-0.178683	
-0.064240	-0.025177	-0.013275	-0.052339	
-0.043183	-0.001678	0.000458	-0.046540	
-0.002289	-0.007172	0.006256	-0.142672	
0.016632	-0.001068	0.010529	-0.128023	
-0.009613	-0.022125	0.008698	0.161899	
-0.063630	-0.024261	0.018463	0.240635	
-0.009918	0.027313	0.027924	0.089265	
0.034944	0.050202	0.012665	0.110323	
0.109102	0.036775	0.005951	0.021210	
0.144808	0.004425	0.006561	0.267185	
0.132296	0.016022	0.013275	0.330968	
0.110323	0.004730	0.015411	0.009308	
0.071870	0.009003	0.018158	0.035554	
-0.008392	0.010529	0.001068	0.021210	
-0.033723	0.018158	-0.003510	0.002289	
-0.073701	0.016327	-0.007477	-0.028229	
-0.107576	0.023346	0.004120	-0.040132	
-0.119783	0.022736	0.017853	-0.042878	
-0.112154	0.020905	0.014496	-0.039826	
-0.083467	0.034638	-0.004120	-0.045014	
-0.046235	0.038911	-0.006866	-0.052644	
0.008698	0.023041	0.041047	-0.060273	
0.057221	0.010223	0.049287	-0.068513	
0.042268	-0.028229	0.004730	-0.072480	
0.037690	-0.052339	-0.032197	-0.088960	
0.023651	-0.041963	-0.058137	-0.103609	
-0.008087	-0.019073	-0.052644	-0.111849	
-0.006256	0.004425	0.064546	-0.125582	
0.004730	0.021820	0.093232	-0.056611	
0.023651	0.033113	0.038606	0.122225	
0.016937	0.016022	0.005035	-0.007477	
-0.019073	-0.009613	0.020294	0.001678	
-0.032502	-0.013885	0.010529	0.090180	
-0.029449	-0.012970	0.007782	-0.015717	
-0.027924	-0.017853	0.014191	-0.103609	
-0.031587	-0.003510	0.038606	0.079194	
-0.003815	0.000153	0.024567	0.084077	
0.036469	-0.007172	0.012054	0.051728	
0.022736	-0.016937	0.124361	0.009308	
0.000458	-0.021210	0.117952	0.019989	
-0.001678	-0.006256	0.038606	0.008087	
-0.009003	-0.014191	-0.084992	-0.017548	
-0.005951	-0.001068	-0.205844	-0.005646	
-0.014801	-0.001984	-0.171054	-0.015106	
-0.011444	0.004120	-0.076142	-0.016327	
-0.016937	0.005035	-0.065766	-0.024567	
-0.026093	0.000458	-0.090180	-0.006256	
-0.000763	-0.003204	0.053254	-0.001373	
0.085298	-0.001068	0.000458	-0.005035	
0.075837	0.005951	-0.059968	-0.040132	
0.056916	0.013885	0.036469	-0.031587	
0.024872	0.004730	0.031587	-0.033723	
-0.017548	0.010834	0.071870	-0.091706	
-0.000153	0.041047	0.069123	-0.161899	
0.009613	0.049287	0.097506	-0.236057	
0.016022	0.021210	0.094759	-0.160678	
-0.014191	0.028534	0.067292	0.089265	
-0.102388	0.030365	0.059358	0.145723	
-0.122225	0.011139	0.047151	-0.025482	
-0.069734	0.000763	0.036775	-0.195468	
-0.094149	0.002594	0.017242	-0.134432	
-0.091096	0.035249	0.021515	0.128939	
-0.086518	0.018158	0.012970	0.089875	
-0.092622	0.016327	0.018463	0.310216	
-0.186007	-0.008087	0.013275	0.215610	
-0.060273	-0.031587	0.003815	0.060884	
0.127108	-0.044099	0.001068	-0.029755	
0.186313	-0.024872	-0.015106	-0.119783	
0.152437	-0.005951	-0.007477	-0.045014	
0.102083	-0.009613	0.008698	-0.193027	
0.043183	0.012665	0.028839	-0.160983	
0.050813	0.034944	0.013275	0.440528	
0.006256	0.033113	-0.007172	0.525673	
-0.078584	0.009003	-0.034638	0.046845	
-0.063630	-0.001068	-0.040132	0.081330	
-0.065766	0.000153	-0.029755	0.079194	
-0.012360	-0.003815	-0.003510	0.026093	
0.012970	-0.037080	-0.005341	-0.005035	
-0.003815	-0.020905	0.005341	-0.031892	
-0.035554	-0.015106	0.008698	-0.066682	
-0.023346	-0.032502	0.009308	-0.089570	
0.006866	-0.039826	0.012665	-0.116121	
0.032502	-0.056001	0.009918	-0.126497	
0.009918	-0.057221	0.008087	-0.173800	
-0.009003	-0.019073	0.013885	-0.110628	
-0.015106	-0.001373	0.022125	-0.000763	
-0.005646	0.005951	0.028229	0.040437	
-0.057832	-0.005035	0.012665	-0.033723	
-0.063630	-0.015411	-0.004425	-0.018463	
0.030365	-0.012970	-0.018463	-0.057832	
0.053864	-0.010834	-0.018158	-0.111238	
0.068208	0.030365	-0.010834	-0.190585	
0.081025	0.077668	-0.001678	-0.146639	
0.054475	0.131075	0.009003	-0.086518	
-0.025177	0.129549	0.007172	0.037080	
-0.092011	0.098726	0.014496	0.185702	
-0.097200	0.062104	0.008392	-0.087739	
0.007782	-0.015411	0.026093	-0.289769	
0.034638	-0.083772	0.027313	-0.281224	
0.040742	-0.102388	0.015411	-0.143892	
0.023651	-0.077973	0.010223	-0.092317	
0.005646	-0.008392	0.006256	0.270542	
0.002594	0.001984	0.002289	0.173495	
0.001068	0.000458	0.001678	0.092317	
0.001068	0.007172	0.002899	0.495461	
-0.006866	0.001984	-0.009918	0.298314	
0.001984	0.012360	-0.001068	0.068208	
0.008087	0.010223	0.012970	0.104219	
0.002594	0.012054	0.008392	0.045014	
-0.016937	0.008087	-0.005035	0.063935	
-0.022125	0.011749	-0.011139	0.073701	
-0.023956	0.009918	-0.001373	0.002594	
-0.017242	0.011749	0.017853	-0.034333	
-0.030365	0.000458	0.028534	-0.063935	
-0.023346	0.010223	0.020905	-0.021820	
-0.030060	0.002289	-0.034638	-0.182345	
-0.021515	0.008698	-0.041352	-0.283666	
-0.006866	0.009308	0.034333	-0.203097	
-0.001984	0.010223	0.124056	-0.144197	
0.008087	0.010834	0.092011	-0.109713	
0.031892	0.011749	0.040437	-0.024261	
0.085298	0.005951	0.026093	0.073091	
0.051728	0.008392	0.016327	0.311742	
0.013275	0.016632	0.016937	0.156711	
0.004425	0.006561	-0.001373	0.041047	
0.006256	0.012360	0.000153	0.041657	
-0.016937	0.005951	0.006866	0.007172	
0.024872	-0.006256	0.057221	0.001984	
-0.007782	-0.023651	0.089265	-0.023346	
-0.079804	-0.019379	0.073091	-0.044709	
-0.109713	-0.034944	0.047456	-0.052949	
-0.106661	-0.028229	0.028534	-0.035554	
-0.059052	-0.003510	-0.030365	-0.034944	
-0.057832	0.022736	-0.071565	-0.034944	
-0.093537	0.031892	-0.116121	-0.038606	
-0.063020	0.044099	-0.168612	-0.033723	
0.008698	0.049287	-0.214084	-0.046235	
0.068818	0.031892	-0.157626	-0.029449	
0.130770	0.019073	0.016937	-0.015411	
0.127413	0.014496	0.081025	-0.052644	
0.084077	0.005646	0.070649	-0.113680	
0.029755	0.003815	0.019989	-0.100863	
0.006256	0.035249	0.036775	0.034638	
0.004730	0.021820	0.092011	-0.039521	
-0.030060	0.047456	0.073701	-0.063325	
-0.073091	0.034638	0.044404	-0.066072	
-0.075532	-0.006256	0.047151	-0.124056	
-0.026093	-0.052033	0.044709	-0.057832	
0.068208	-0.051118	0.039216	0.116121	
0.137484	-0.051728	0.025177	0.167697	
0.097506	-0.065766	0.018768	0.033723	
-0.010223	-0.025482	0.015411	0.002594	
-0.045014	-0.005951	-0.013885	-0.095675	
-0.071565	-0.016327	-0.021515	-0.137789	
-0.052033	-0.031281	0.020599	-0.206454	
0.050202	-0.027008	0.045014	-0.195468	
0.151522	-0.034028	0.040132	0.102083	
0.078889	-0.023041	0.030975	0.274815	
0.006256	-0.028229	0.000153	0.144197	
0.040742	-0.014801	-0.050508	0.248264	
-0.012054	0.025177	-0.062104	0.145723	
-0.098116	0.036164	0.044404	0.148775	
-0.133821	0.020599	0.073701	0.041657	
-0.157321	0.031892	0.021210	-0.005035	
-0.186007	0.074311	-0.009613	-0.001984	
-0.218967	0.055085	-0.021820	-0.063020	
-0.241856	-0.028534	-0.029755	-0.086518	
-0.201266	-0.061494	-0.038606	-0.076753	
-0.123140	-0.077668	-0.037385	-0.018463	
-0.015106	-0.066682	-0.003204	0.103609	
0.040742	-0.031587	-0.007172	0.029144	
0.031892	-0.003510	0.008087	-0.099947	
0.032807	0.025787	0.088960	-0.096895	
0.030670	0.039826	0.051728	0.013885	
-0.010834	0.071259	0.016327	0.081635	
0.092927	0.072785	0.016937	-0.025177	
0.204318	0.086518	0.028534	-0.094759	
0.237888	0.078279	0.022736	-0.100863	
0.176242	0.058442	0.005341	-0.095064	
0.111238	0.000153	-0.018158	-0.109713	
0.106966	-0.042268	-0.003510	-0.025787	
0.063935	-0.060578	-0.009613	-0.093232	
0.009003	-0.005646	0.006866	-0.028534	
-0.048371	0.102694	0.069428	0.147554	
-0.097506	0.052033	0.082551	0.012665	
-0.072480	-0.025177	0.007172	0.040742	
0.085298	-0.005646	-0.063020	0.059968	
0.187228	0.023346	-0.086518	0.102999	
0.070344	0.004425	-0.032502	0.136568	
-0.010223	-0.015106	0.056916	0.074006	
-0.060578	-0.012970	0.047151	0.037080	
-0.071259	0.018158	-0.009918	-0.017242	
-0.077058	0.006561	-0.005341	-0.008392	
-0.054475	0.030365	0.009003	-0.036164	
-0.023956	0.014191	-0.010834	-0.273899	
-0.017548	-0.027313	-0.002899	-0.612345	
-0.029755	-0.050202	-0.004120	-0.616617	
0.011749	-0.040132	0.003815	-0.362707	
-0.019073	-0.027008	-0.005341	-0.292821	
-0.047761	-0.011444	0.010223	0.507668	
-0.062104	-0.008087	0.021210	0.714274	
-0.055696	0.001984	0.019073	0.456702	
-0.055390	0.002594	-0.001068	0.468299	
-0.055696	0.014496	-0.000153	0.325780	
-0.055696	0.012360	-0.001068	0.077668	
-0.033723	0.005035	0.007172	-0.016632	
0.006866	0.002594	0.008698	0.051118	
0.086823	0.005951	0.002289	0.193332	
0.097200	0.024567	0.006866	0.104219	
0.049897	0.017242	0.005035	-0.031281	
0.019989	0.019073	0.009918	-0.063020	
-0.013885	0.016632	0.004730	-0.133821	
-0.029449	0.011749	0.015411	-0.114901	
-0.040437	0.003815	0.022430	-0.024567	
-0.065461	0.001984	0.048982	-0.089570	
-0.085603	0.033113	0.073396	-0.117342	
-0.049287	0.084992	0.048676	-0.100863	
-0.027618	0.057527	0.018158	-0.093232	
0.004120	0.017242	0.017242	-0.096895	
0.022736	-0.027924	0.027924	-0.111849	
0.002289	-0.080415	0.009918	-0.099947	
-0.007477	-0.101778	0.002899	-0.068513	
0.011749	-0.077363	-0.007172	-0.014191	
0.048066	-0.056306	-0.052339	-0.034028	
0.073091	-0.041352	-0.104219	-0.076142	
0.093232	-0.013580	-0.019379	-0.168002	
0.078279	-0.007782	0.018768	-0.209811	
0.063325	-0.003510	0.036164	0.016632	
0.063020	-0.003204	0.031587	0.096285	
0.063935	0.044709	0.030060	-0.011749	
-0.001068	0.070649	0.003204	0.049592	
-0.088044	0.112459	0.000153	0.147860	
-0.068513	0.114290	-0.009918	0.057527	
-0.056306	0.090180	0.003204	-0.132601	
-0.087434	0.054780	0.015106	-0.460975	
-0.081635	-0.025482	0.024872	-0.648355	
-0.120089	-0.071870	0.014191	-0.712749	
-0.069123	-0.095675	0.005951	-0.302281	
0.013275	-0.101473	0.020294	0.763714	
0.045930	-0.045930	0.036469	0.991989	
0.065156	-0.005951	0.020599	0.335851	
0.048066	0.004120	-0.013885	0.331883	
0.040437	0.010223	-0.017242	0.514076	
0.014801	0.022125	0.005035	0.150301	
0.114901	0.031892	0.048676	0.066987	
0.277256	0.043489	0.064851	0.125887	
0.291600	0.053559	0.066377	0.053864	
0.102999	0.097200	0.027008	-0.036775	
-0.077363	0.150606	0.055390	-0.057832	
-0.191806	0.082856	0.007782	-0.066987	
-0.220798	-0.004120	-0.118868	-0.074616	
-0.210422	-0.102083	-0.184787	-0.092622	
-0.199435	-0.148165	-0.151827	-0.099642	
-0.218356	-0.193027	-0.181125	-0.103609	
-0.277561	-0.153048	-0.075837	-0.096895	
-0.239414	-0.084382	-0.073091	-0.098421	
-0.040437	-0.041963	-0.039216	-0.099642	
0.048982	0.011139	0.097506	-0.123140	
0.083161	0.105135	0.186313	-0.176547	
0.066987	0.139009	0.169833	-0.141451	
0.076753	0.072785	0.124056	-0.039521	
0.088655	0.003204	0.152132	-0.055085	
0.106966	-0.038606	0.099337	-0.158542	
0.157321	-0.023956	0.091706	-0.222630	
0.064546	-0.025482	0.075837	-0.233921	
0.040742	0.021820	0.073701	-0.024261	
0.082551	0.065461	0.052949	0.183261	
0.075227	0.029755	0.034333	0.091706	
-0.042878	-0.038301	0.016937	0.234226	
-0.088044	-0.062715	0.004425	0.186923	
-0.098116	-0.067597	-0.012360	-0.037385	
-0.081635	0.014496	-0.018463	-0.047151	
0.009918	0.095675	-0.015411	-0.051118	
0.154573	0.072175	-0.013885	0.075227	
0.069123	0.043183	-0.005951	0.229649	
-0.040132	0.009918	-0.016327	0.189975	
-0.060273	0.019073	-0.009918	0.108492	
-0.113680	0.008087	-0.004425	-0.017242	
-0.114290	0.060578	-0.001678	-0.024567	
-0.156099	0.179904	-0.017242	-0.005035	
-0.063935	0.164645	-0.018463	0.000458	
0.050813	0.006256	-0.015411	-0.079499	
0.087129	-0.120089	-0.001678	-0.081635	
0.058747	-0.213473	0.024261	-0.065461	
0.048371	-0.207370	0.013275	-0.096590	
0.059358	-0.114290	-0.112459	-0.177463	
0.087129	-0.036469	-0.118258	-0.423438	
0.090486	0.028229	-0.046540	-0.422828	
0.036469	0.079194	-0.100252	-0.213473	
-0.055085	0.137789	0.005951	0.002899	
-0.144503	0.126802	0.059663	0.681926	
-0.162204	0.101473	0.027924	0.440223	
-0.164645	0.074922	0.016327	-0.053864	
0.004730	0.015106	0.028229	0.039826	
0.071870	-0.042573	0.034638	-0.010529	
0.016632	-0.056001	0.024261	-0.147860	
0.016632	-0.070344	0.010223	-0.681315	
0.075837	-0.041963	0.025482	-0.427711	
0.110628	-0.023041	0.041352	0.359045	
0.085298	-0.003510	0.042268	0.158542	
0.081025	0.010834	0.024872	0.377050	
0.124971	0.020294	-0.005035	0.120089	
0.026703	0.011139	-0.021210	0.193942	
-0.055085	-0.005646	-0.020294	0.442969	
-0.106050	-0.027313	-0.014191	0.226902	
-0.139620	-0.038606	-0.005035	0.146639	
-0.069734	-0.045930	0.002594	0.117952	
0.013275	-0.015106	0.010529	0.132601	
0.014801	0.021820	0.007172	-0.028839	
-0.032502	0.040437	-0.007477	-0.229649	
-0.025482	0.049287	-0.001373	-0.554055	
0.022430	0.037080	0.002899	-0.696269	
0.066377	0.018158	0.001984	-0.143282	
0.045930	-0.016327	0.003815	-0.067903	
0.001984	-0.033418	0.010529	-0.150911	
-0.035554	-0.057832	0.044404	0.454566	
-0.028229	-0.034333	0.093232	0.302587	
-0.052033	0.065156	0.071870	0.094149	
-0.091096	0.112459	0.040132	0.318761	
-0.154268	0.043183	0.016022	0.222630	
-0.138094	0.016327	-0.004425	0.251316	
-0.065156	0.012360	-0.006866	-0.126192	
0.002899	-0.038301	-0.001984	-0.198520	
0.066682	-0.033113	0.009308	-0.142366	
0.062409	0.031892	0.022125	-0.461280	
0.059358	0.066682	0.047151	-0.477455	
0.073091	0.040437	0.042878	-0.013275	
0.123140	-0.001984	0.028229	0.479591	
0.135958	-0.064546	0.000458	0.401159	
0.113375	-0.070039	-0.004425	0.183566	
0.084077	-0.092622	-0.025787	0.186923	
0.164950	-0.072785	-0.043794	0.053254	
0.102694	-0.025787	-0.048676	0.001068	
-0.048371	-0.005646	-0.023956	-0.049592	
-0.145723	0.052033	0.004120	-0.047151	
-0.141756	0.093537	0.066682	0.000153	
-0.144197	0.041963	0.095064	-0.064851	
-0.145113	-0.048066	0.042878	-0.130159	
-0.107576	-0.046540	-0.001678	-0.113985	
-0.103914	-0.037080	-0.007477	-0.092622	
-0.107271	-0.052644	-0.023346	-0.131990	
-0.062104	0.020905	-0.013885	-0.180820	
0.003204	0.042573	-0.001373	-0.169223	
0.016327	0.046235	0.029144	-0.159152	
0.034333	0.089265	0.087129	-0.091096	
0.049287	0.072480	0.067292	-0.051728	
0.063020	0.059968	0.014191	0.016632	
0.108492	0.033418	-0.023346	0.040742	
0.204928	0.025177	0.030670	0.002289	
0.078889	0.015106	0.044709	-0.023346	
-0.003510	0.011139	-0.026398	-0.027313	
-0.089570	0.041963	-0.100863	-0.001984	
-0.092011	0.064546	-0.189670	0.011139	
-0.119173	0.027924	-0.193027	0.009918	
-0.042878	0.002899	-0.211947	-0.001068	
0.037080	0.054170	-0.169833	-0.004120	
-0.015717	-0.003510	0.040437	0.008698	
-0.113985	-0.098116	0.075227	0.016022	
-0.075837	-0.128939	0.147554	0.014191	
-0.026093	-0.116426	0.293736	0.000763	
-0.041963	-0.103609	0.208591	-0.009918	
0.101168	-0.092011	0.154573	0.000458	
0.114290	-0.087434	0.073091	0.004120	
0.060578	0.009308	-0.080720	0.009308	
-0.037385	0.100863	-0.115206	-0.007172	
-0.062409	0.077058	-0.035859	0.007172	
-0.038301	0.036469	-0.058442	-0.008392	
0.010223	0.048371	-0.008392	0.005341	
0.023041	0.020294	0.103609	0.009003	
-0.067292	0.038911	0.108187	0.006561	
-0.111544	0.028229	0.142061	-0.013885	
0.016327	-0.032502	0.096895	0.000153	
0.081941	-0.107576	0.021515	-0.011444	
0.024872	-0.089265	0.011139	-0.035859	
-0.075227	-0.051118	0.000763	-0.068513	
-0.158542	-0.035859	-0.001068	-0.077363	
-0.088349	-0.033113	-0.010223	-0.143282	
0.124361	-0.018158	-0.020294	-0.233921	
0.209811	-0.007782	-0.044709	-0.141146	
0.122530	0.028229	-0.046235	0.138094	
0.056916	0.062104	-0.017548	0.350500	
0.000458	0.088655	-0.013275	0.167697	
-0.027008	0.135653	-0.030365	0.076142	
-0.038911	0.097506	-0.070039	-0.100863	
-0.037385	0.056306	-0.042573	0.196078	
-0.058137	0.015106	-0.001068	0.187228	
-0.004425	0.012054	0.050813	-0.051118	
0.102083	-0.000763	0.030060	-0.067292	
0.170444	0.052339	-0.005035	-0.113070	
0.128023	0.102388	0.016327	-0.067292	
0.013885	0.040437	0.028229	-0.021515	
-0.078584	-0.028229	0.012054	-0.094759	
-0.010223	-0.043183	-0.008392	0.148775	
0.064240	-0.094759	0.004120	0.338597	
0.016937	-0.128939	-0.003510	-0.190585	
-0.106661	-0.081635	0.000458	-0.333714	
-0.209811	-0.060273	-0.016937	0.047761	
-0.177768	-0.044099	-0.018463	0.010834	
-0.118258	-0.009918	-0.009003	-0.391088	
-0.107576	0.038301	0.040742	-0.200351	
-0.090486	0.049287	0.042878	0.238194	
0.041352	0.064851	0.026093	0.160068	
0.197604	0.053559	-0.009918	-0.034333	
0.259251	0.080720	-0.032502	-0.001984	
0.225681	0.059052	-0.015411	0.128939	
-0.037080	0.052033	0.012665	-0.117342	
-0.114290	0.030670	0.037690	-0.019073	
-0.116121	0.013275	0.028534	0.161899	
-0.121920	0.039826	0.025482	0.128023	
-0.153658	0.027313	0.030060	0.522926	
-0.150606	-0.004425	0.016327	0.333714	
-0.131990	-0.044404	-0.009918	0.019989	
-0.127108	-0.056611	-0.010223	-0.065156	
-0.084382	-0.078584	0.005035	-0.024567	
-0.011749	-0.017853	0.037690	-0.020599	
0.023956	0.033113	0.020599	-0.131075	
0.090486	0.024872	0.009003	-0.212558	
0.123446	-0.011444	0.024872	-0.173800	
0.158237	-0.017242	-0.008392	0.149385	
0.204928	-0.032502	0.067597	0.203403	
0.180209	-0.012360	0.188754	0.014801	
0.059358	0.051423	0.084687	0.026093	
-0.043794	0.084992	-0.031281	-0.136568	
-0.068208	0.074616	-0.105135	-0.169223	
-0.076447	0.030365	-0.102694	-0.311742	
-0.104525	-0.028229	-0.042268	-0.289769	
-0.116732	-0.076753	-0.110018	0.087739	
-0.088349	-0.112764	-0.171969	0.054780	
-0.023041	-0.138704	-0.131685	0.014496	
0.037995	-0.135958	-0.039826	-0.040437	
0.049287	-0.114901	0.028229	-0.146029	
0.036164	-0.007172	0.184482	-0.014191	
0.029144	0.030975	0.127108	-0.021515	
0.025787	0.045930	0.159762	-0.303197	
0.013885	0.059968	0.120394	-0.092622	
0.000458	0.066682	0.057527	0.164035	
-0.011139	0.057221	0.049287	-0.092622	
0.021820	0.053559	0.013885	-0.127413	
0.187533	0.033113	0.045625	-0.213778	
0.311742	0.017853	0.069428	-0.040437	
0.149996	0.024567	0.046540	0.367590	
0.005646	0.026703	0.005951	0.096285	
-0.118258	0.011749	-0.042268	0.198520	
-0.214084	0.009003	-0.049592	0.244297	
-0.234531	0.028839	-0.071870	0.163424	
-0.155184	0.066377	0.059358	0.112764	
-0.033418	0.125277	0.063630	0.037385	
0.014801	0.084077	-0.120394	-0.001984	
0.019073	0.054780	-0.078889	-0.011444	
0.055390	-0.007477	-0.172885	-0.036164	
0.000153	-0.057221	-0.065766	-0.036164	
-0.045625	-0.043489	-0.012054	-0.044099	
0.012665	-0.010834	-0.150606	-0.050202	
-0.042268	-0.030365	-0.030060	-0.139925	
-0.109713	-0.012970	0.109102	-0.323339	
-0.007782	-0.038606	0.019379	-0.308080	
0.086518	-0.074616	-0.001678	0.101473	
0.076447	-0.086213	0.018463	0.112154	
-0.013885	-0.041657	0.033113	0.027008	
-0.091096	0.074311	0.091096	-0.105440	
-0.169223	0.149996	0.179599	-0.113985	
-0.135347	0.113680	0.140230	-0.076447	
-0.051118	0.037385	0.058747	-0.051728	
-0.051728	-0.049287	0.065766	0.183261	
0.018463	-0.114595	0.048982	0.214084	
0.166476	-0.150301	0.039216	0.077668	
0.141146	-0.129549	0.034333	-0.008087	
0.084687	-0.085908	0.024261	-0.119173	
0.038301	-0.063935	0.015411	0.181125	
0.038301	0.020905	0.004730	0.086823	
0.028229	0.080720	-0.038301	-0.005951	
-0.018158	0.060578	-0.046235	0.114901	
-0.069123	0.016022	-0.030060	0.003815	
-0.110018	0.031892	-0.022125	-0.345312	
-0.082551	0.038301	-0.022430	-0.306249	
-0.041352	0.018768	0.001678	0.009003	
-0.001984	0.041963	0.034333	-0.026703	
0.013885	0.014496	0.027924	-0.009918	
0.013275	-0.003815	0.117952	0.160678	
-0.004425	0.001984	0.053864	0.288854	
-0.016327	0.017242	-0.044099	0.223850	
-0.065766	0.050813	-0.076142	-0.005646	
-0.043794	0.143282	-0.049592	-0.003510	
0.042573	0.129244	-0.027313	-0.207370	
0.118258	0.059358	0.018463	-0.339208	
0.146029	-0.002289	0.032197	-0.195468	
0.163119	-0.091706	0.023346	-0.117037	
0.094759	-0.142977	-0.017548	0.336156	
0.060273	-0.096895	-0.052644	0.542459	
0.068208	-0.070344	-0.052949	0.055085	
0.154573	-0.041047	-0.025177	0.034333	
0.061189	0.016327	-0.005341	-0.037995	
-0.111544	0.071259	-0.001068	-0.088960	
-0.174411	0.042573	0.011139	0.023041	
-0.195773	0.016327	0.035554	0.065156	
-0.198825	0.006256	0.083467	-0.048982	
-0.174411	-0.029755	0.074922	-0.066377	
-0.153658	-0.081941	0.109102	-0.174411	
-0.101778	-0.068513	0.105440	-0.293431	
-0.031281	-0.056611	0.090791	-0.186313	
-0.020294	-0.069123	0.005341	-0.009308	
-0.023346	-0.029144	-0.166476	0.261082	
-0.046540	0.041963	-0.313573	0.164035	
0.016327	0.096895	-0.236362	-0.141146	
0.071870	0.046845	-0.137789	-0.229038	
0.048066	0.060273	-0.026093	0.134737	
-0.039826	0.060578	-0.017242	0.144503	
0.030670	0.013275	-0.112764	-0.363317	
0.076447	-0.025482	-0.036164	-0.243992	
0.142672	-0.012970	0.121920	0.443580	
0.186313	-0.012054	0.261997	0.268711	
0.065156	0.045930	0.139315	-0.030670	
0.013275	0.144503	0.089570	0.100557	
0.065156	0.134737	0.170444	0.037080	
-0.002289	0.093537	0.148470	0.043794	
-0.033113	0.069123	0.065156	0.002289	
-0.004425	0.044709	0.033113	-0.048982	
-0.043489	-0.013275	0.033418	-0.074922	
-0.015717	-0.037385	0.039216	-0.182040	
0.036469	-0.056001	-0.009003	-0.352026	
0.034028	-0.065766	-0.074922	-0.376745	
-0.034028	-0.061494	-0.087129	-0.185092	
-0.040132	0.016327	-0.009003	0.146944	
-0.057221	0.042573	0.026703	0.238194	
-0.090180	0.007782	-0.021515	0.165866	
-0.047151	-0.006256	-0.050202	-0.086213	
-0.038301	-0.044404	-0.023956	-0.183566	
0.007782	-0.088044	-0.008087	0.185092	
-0.008392	-0.082246	0.006561	0.392004	
0.022125	-0.077668	-0.024567	-0.036775	
0.213778	-0.027008	-0.031587	-0.062104	
0.373388	0.046540	0.036164	0.029755	
0.283971	0.066987	-0.034333	0.048982	
0.004120	0.128328	-0.084992	0.134737	
-0.170138	0.163730	-0.130465	0.112154	
-0.232395	0.186618	-0.081025	0.028839	
-0.216830	0.138399	0.063325	-0.063935	
-0.251621	0.037080	0.243687	-0.211642	
-0.299535	-0.137484	0.285192	-0.388647	
-0.274204	-0.299840	0.228733	-0.424964	
-0.219883	-0.343786	0.207065	0.120089	
-0.141146	-0.299230	0.032197	0.400244	
-0.021820	-0.157626	-0.056001	-0.085603	
0.025177	-0.002899	-0.055696	0.135653	
-0.027924	0.097506	-0.014496	0.059663	
-0.037690	0.085603	-0.047761	0.189670	
0.042573	0.039826	-0.040742	0.275425	
0.136263	0.040132	-0.041963	0.078584	
0.211337	0.057527	-0.047761	-0.006256	
0.117952	0.067597	-0.070649	-0.027924	
0.019989	0.087739	-0.036775	-0.151827	
-0.066987	0.141756	0.019073	-0.191195	
-0.070344	0.129549	0.089875	-0.262913	
0.091096	0.134432	0.124056	-0.024261	
0.106661	0.065461	0.109713	0.360266	
0.010223	-0.055696	0.128328	0.016022	
0.072785	-0.161899	0.111849	-0.175326	
0.102694	-0.175021	0.022736	-0.213473	
0.072175	-0.129549	0.009003	-0.281835	
0.052644	-0.075532	-0.059663	-0.036164	
0.135958	-0.003510	-0.177463	0.168918	
0.206149	0.056306	-0.144503	-0.087434	
0.110018	0.069123	-0.164950	-0.050508	
0.030365	0.088655	-0.185397	-0.035859	
0.051118	0.076142	-0.247349	-0.152437	
0.102694	0.035249	-0.238804	0.186923	
0.055085	0.012665	-0.137484	0.278782	
-0.025482	0.019379	-0.000153	0.138704	
-0.086213	0.017242	0.053254	0.061494	
-0.014801	0.048676	0.001068	0.121004	
-0.023956	0.046540	-0.126802	0.081330	
-0.127413	0.010529	-0.112154	0.000153	
-0.199435	0.043489	-0.027008	0.016022	
-0.204318	0.056916	0.120394	-0.028839	
-0.188144	0.023346	0.353857	-0.111544	
-0.190585	0.018158	0.243687	-0.195773	
-0.198215	-0.017548	0.200046	-0.229649	
-0.053559	-0.089570	0.374914	-0.270847	
0.094759	-0.058137	0.243382	-0.067903	
0.106966	-0.015106	0.013275	0.126192	
0.120394	-0.011139	-0.013885	0.014191	
0.114595	0.019073	0.004120	0.044709	
0.035859	0.013885	0.019073	0.269321	
-0.046235	0.036469	-0.015411	-0.030060	
-0.041047	0.042573	-0.033723	0.085298	
-0.004425	-0.019989	-0.015717	0.075837	
0.090486	-0.090486	0.005341	0.005035	
-0.020294	-0.092011	-0.012360	0.009308	
-0.130159	-0.085603	-0.069123	0.057221	
-0.094454	-0.046540	-0.039216	-0.208591	
-0.086213	0.041047	0.050508	-0.304418	
-0.033418	0.094454	0.024261	-0.142672	
0.020599	0.017853	0.023041	-0.182651	
0.047151	-0.000153	0.018768	0.032807	
0.039216	0.055390	0.013275	0.210727	
0.054475	0.063325	-0.006256	0.250401	
0.262913	0.078279	-0.009613	0.204318	
0.209506	0.070649	-0.007477	0.141756	
0.063325	0.037385	-0.027008	-0.034333	
-0.039521	0.057527	-0.021210	-0.018463	
-0.033723	0.008087	-0.017242	-0.055085	
-0.053864	-0.019684	-0.034333	-0.184482	
-0.125582	-0.056611	-0.048676	-0.177157	
-0.139620	-0.019073	-0.020599	-0.016632	
-0.080415	0.020294	-0.013275	-0.044709	
-0.005035	-0.012970	-0.009003	-0.005035	
0.015717	-0.030975	-0.009613	0.113985	
-0.029449	-0.027618	-0.011139	0.150911	
-0.040437	-0.069428	-0.014496	0.002289	
0.156711	-0.164950	-0.005951	-0.201571	
0.135042	-0.197909	0.019073	-0.405127	
-0.148775	-0.152132	0.019073	-0.085298	
-0.099947	0.004120	0.015411	-0.044404	
0.030060	0.054170	-0.005951	0.235142	
0.080110	0.040132	-0.016937	0.608683	
-0.022430	0.075532	-0.036469	0.224766	
-0.160068	0.144808	-0.059358	0.036469	
-0.333104	0.171664	-0.070039	0.028534	
-0.312657	0.140535	-0.032502	0.002289	
-0.121614	0.050813	0.020294	-0.014496	
0.022430	-0.056306	0.093537	-0.098726	
0.058442	-0.146029	0.099642	-0.171359	
0.080415	-0.115816	0.055390	0.164950	
0.091401	0.005951	0.044404	0.012665	
0.069428	0.069428	0.085908	-0.192416	
0.024872	0.042268	0.106050	-0.264439	
0.059358	0.055390	0.079499	-0.206454	
0.115511	0.052339	0.015411	-0.129854	
0.140230	0.022430	-0.009918	-0.034333	
0.138094	0.008087	-0.001678	0.190280	
0.110018	0.017242	0.002594	0.069734	
0.075227	0.034028	0.017853	-0.192416	
0.053254	0.018158	0.051423	-0.034333	
0.046540	0.024872	0.044709	0.144808	
0.074006	0.009003	0.006256	-0.069428	
0.161593	-0.006866	0.018463	-0.198825	
0.036469	-0.034944	0.020599	0.049592	
-0.084382	-0.038606	0.070954	0.232395	
-0.132296	-0.042268	0.091096	0.089265	
-0.146639	-0.007782	0.053254	0.053864	
-0.085603	0.006561	0.007782	0.022430	
-0.017853	0.005951	-0.025482	0.006866	
-0.060273	-0.026093	-0.020294	-0.003510	
-0.055085	-0.035859	-0.032502	0.018158	
-0.057221	-0.022430	-0.080110	-0.182956	
-0.103304	-0.013885	-0.121614	-0.374609	
-0.079499	0.014801	0.010834	-0.183261	
-0.072480	0.009003	-0.032197	-0.080110	
-0.059663	-0.020905	-0.167392	-0.061799	
0.007782	-0.056306	-0.167087	-0.010529	
0.060273	0.009003	-0.134737	-0.117647	
0.008392	0.039216	-0.126497	-0.056001	
-0.043794	0.035249	-0.086213	0.181430	
0.001068	0.027313	0.168307	0.362707	
0.012360	0.049287	0.220188	0.214999	
0.012054	0.070954	0.064851	-0.186618	
0.061189	0.069428	0.040132	0.079194	
0.132601	0.022430	0.111238	0.144808	
0.166171	-0.021515	0.125277	0.000763	
0.133211	-0.021515	0.043183	0.212253	
0.045320	0.081330	0.048676	0.368811	
-0.049592	0.161593	0.040742	0.100863	
-0.060578	0.045320	0.012054	0.120394	
0.009613	-0.041352	0.039521	0.020905	
0.069428	-0.099947	0.169833	0.002899	
-0.064546	-0.189364	0.184176	-0.035859	
-0.158237	-0.228733	0.039216	-0.072480	
-0.019379	-0.185397	0.062409	-0.092317	
0.158847	-0.102694	-0.034638	-0.099337	
0.094759	0.048676	-0.163119	-0.086823	
0.041352	0.137484	-0.186313	-0.089265	
0.176852	0.140535	-0.298619	-0.092317	
0.016632	0.102388	-0.306249	-0.083772	
-0.161288	0.092927	-0.103304	-0.068513	
-0.271763	0.097200	0.069123	-0.095980	
-0.348364	0.007782	0.166781	-0.159152	
-0.256809	-0.045625	-0.072785	-0.083772	
-0.080415	0.046845	0.014191	-0.131380	
-0.020294	0.164950	0.091706	-0.213778	
-0.019073	0.147249	0.052949	-0.188144	
-0.021210	-0.008087	0.061494	0.129244	
-0.041352	-0.217135	0.039216	0.169223	
-0.038301	-0.265354	0.065156	-0.092317	
-0.030060	-0.196994	0.064546	-0.340123	
-0.016937	-0.065766	0.043183	-0.274509	
0.244907	-0.005035	0.016022	0.239109	
0.381933	0.069123	0.027313	0.016937	
0.114901	0.140535	0.063325	-0.206454	
-0.059968	0.029755	0.055696	0.149691	
-0.173800	-0.089875	0.032197	0.375525	
-0.220493	-0.124666	0.016937	0.069123	
-0.141756	-0.080415	0.015411	-0.279697	
0.014191	-0.036469	0.026398	-0.277866	
-0.038301	-0.043183	0.012665	0.016632	
-0.076142	-0.028229	0.006256	-0.050813	
0.011139	0.042268	0.005035	0.533608	
0.086213	0.160983	-0.022125	0.603800	
0.142672	0.261387	-0.023346	0.278782	
0.251621	0.228428	0.011749	0.057221	
0.319066	0.182956	0.034028	0.205539	
0.096285	0.227512	0.002594	0.287328	
-0.035859	0.255283	0.003204	0.159457	
-0.088349	0.149080	-0.004425	0.016022	
-0.113985	0.108797	-0.001678	0.053254	
-0.089875	0.039826	-0.006256	0.010834	
-0.111238	-0.147860	-0.009003	-0.286412	
-0.207980	-0.305943	0.000458	-0.374304	
-0.250095	-0.399939	0.001068	-0.317235	
-0.121920	-0.354773	0.014496	-0.307164	
0.071870	-0.217441	0.027924	-0.038911	
0.198215	-0.058442	0.028229	0.102694	
0.222324	-0.010834	0.022736	0.157321	
0.112764	-0.012360	-0.005035	-0.119478	
0.060884	0.034638	-0.011749	-0.320592	
0.111238	0.027313	0.000153	0.267796	
0.140841	0.014801	0.001984	0.047456	
0.107882	0.034028	0.006561	-0.023346	
0.146029	0.055085	0.000153	-0.128023	
0.017853	0.050508	0.016022	-0.289159	
-0.017242	0.022125	0.017242	-0.253757	
0.064546	0.016632	0.022736	-0.473793	
-0.083161	-0.023346	0.021515	0.018463	
-0.106661	-0.031281	0.026093	0.626688	
-0.085908	0.010529	0.022736	0.434730	
-0.153353	0.006256	-0.005341	0.282140	
-0.189670	-0.029144	-0.024567	0.168002	
-0.190280	-0.016327	-0.046845	0.054170	
-0.181735	-0.005035	-0.043489	-0.204623	
-0.174411	0.012360	-0.007477	-0.117342	
-0.099947	0.029755	0.049592	0.103609	
-0.018463	0.079194	0.091096	-0.017853	
0.016022	0.097200	0.078889	-0.125582	
0.023651	0.108492	0.060273	-0.117037	
0.040132	0.099642	0.035554	-0.031281	
0.056611	0.056306	0.071259	-0.121309	
0.076753	0.046540	0.084992	0.043489	
0.070344	0.063020	-0.000153	-0.005951	
0.070954	0.043183	-0.084687	-0.189670	
0.204318	0.023956	-0.209811	-0.101168	
0.132296	0.057221	-0.276035	0.052644	
-0.037690	0.059358	-0.247349	0.149080	
-0.021210	0.045930	-0.178073	0.031587	
-0.023651	0.013275	0.056916	-0.102694	
-0.074616	-0.029449	0.105440	-0.164035	
-0.112154	-0.114290	0.158542	-0.178378	
-0.102694	-0.127413	0.208285	-0.107882	
-0.066377	-0.070649	0.123140	-0.168918	
-0.033418	-0.099642	0.111238	-0.053254	
-0.005951	-0.128633	0.093537	0.149385	
-0.007172	-0.076142	0.075837	0.230259	
0.021210	0.041047	0.053559	0.157931	
0.056001	0.026398	-0.016937	-0.047151	
0.127413	0.051423	-0.051728	-0.067903	
0.106356	0.110628	-0.076447	-0.021820	
0.086823	0.169223	-0.092011	-0.002289	
0.093232	0.114290	-0.068818	0.027313	
0.078584	0.024567	0.068818	0.151827	
0.016632	-0.068513	0.183566	0.058747	
-0.114290	-0.142366	0.232700	0.005341	
-0.189364	-0.211032	0.071565	0.002899	
-0.141756	-0.227512	0.052339	-0.010529	
-0.074006	-0.144503	0.032807	-0.013580	
-0.049592	0.019379	-0.034028	-0.007477	
-0.086213	0.092317	0.138094	-0.007782	
-0.043489	0.095675	-0.088960	-0.019989	
0.036775	0.106661	-0.203097	-0.019989	
0.120699	0.165561	-0.255589	-0.030365	
0.337377	0.205844	-0.233311	-0.029755	
0.326695	0.192721	-0.028534	-0.023346	
0.095980	0.060578	-0.078584	-0.009918	
-0.017548	-0.047456	-0.206454	-0.021515	
-0.124056	-0.069123	-0.084077	-0.048066	
-0.195468	-0.076447	0.332189	-0.088349	
-0.194552	-0.113375	0.248875	-0.154573	
-0.144503	-0.147554	0.075227	-0.244602	
-0.130465	-0.127718	0.083772	-0.555886	
-0.185397	-0.085603	0.107576	-0.623941	
-0.114595	-0.065461	0.095675	0.462806	
-0.006866	0.004120	0.069123	0.506142	
0.010223	-0.001984	0.059358	0.398718	
0.022736	0.052033	0.027313	0.254978	
0.009003	0.075227	-0.024567	0.365149	
-0.003510	0.042878	-0.069123	0.203403	
-0.028229	0.012054	-0.066987	0.022430	
-0.029144	0.027008	0.005035	0.033418	
-0.029449	0.033418	0.127108	0.008087	
0.037080	0.059052	0.099642	-0.050508	
0.040742	0.007782	-0.043794	-0.300450	
0.020599	-0.009308	-0.097200	-0.356298	
0.003204	0.016632	-0.117037	-0.232090	
0.190890	0.033418	-0.116732	0.063325	
0.151522	0.056916	-0.029449	0.201571	
0.060884	0.070344	-0.095064	0.199740	
0.152437	0.063020	-0.087129	0.248569	
0.104219	0.030975	0.074922	0.206759	
-0.043489	-0.010834	0.091706	0.058747	
-0.088044	-0.009613	0.031281	0.022736	
-0.098116	0.015717	0.034944	-0.029449	
-0.142366	0.074311	0.043183	-0.045625	
-0.134737	0.058442	0.038606	-0.056611	
-0.209506	-0.045014	0.027008	-0.092317	
-0.169528	-0.122225	0.012054	-0.091706	
0.073091	-0.156711	-0.003815	-0.190890	
0.321202	-0.156099	0.024567	-0.221104	
0.238804	-0.117647	0.024567	-0.142672	
0.082551	0.004425	0.032197	0.035859	
-0.029144	0.057527	0.039216	0.195468	
-0.142061	0.070039	0.019989	0.071565	
-0.141756	0.059052	0.002899	-0.094759	
-0.093537	0.035249	-0.018158	-0.280613	
-0.074006	0.033113	-0.028229	-0.013275	
-0.065461	0.023956	-0.004120	-0.127718	
-0.077363	-0.022430	-0.003204	-0.292516	
-0.001068	-0.063935	-0.027008	-0.253757	
0.052033	-0.026093	-0.011749	0.141451	
0.016327	0.010834	-0.033723	0.428321	
0.070954	0.031281	-0.096895	0.157321	
0.097200	0.017242	-0.011139	0.118563	
0.104525	-0.002289	-0.107271	0.066072	
0.162509	0.067597	-0.092927	0.074311	
0.143282	0.123446	0.027313	0.029755	
0.048371	0.072480	0.068513	-0.015106	
-0.029755	0.133516	0.266575	0.000153	
-0.080110	0.158847	0.197299	-0.015106	
-0.072480	0.087129	0.088960	-0.019684	
-0.040437	0.000153	0.074616	-0.072785	
-0.149385	-0.069428	0.033418	-0.125277	
-0.244297	-0.132601	0.016327	-0.241245	
-0.251011	-0.178988	0.037080	-0.532388	
-0.107576	-0.222630	0.040132	-0.804303	
0.071259	-0.189059	0.019989	-0.740826	
0.114595	-0.084382	-0.002899	-0.043794	
0.095980	0.025787	-0.000153	0.838788	
0.072785	0.074006	0.008698	0.808270	
0.033723	0.030365	-0.023041	0.599527	
-0.049897	0.059052	-0.017548	0.293431	
-0.026398	0.053254	-0.029755	0.307775	
0.133516	0.039826	-0.041352	0.298924	
0.317540	0.014191	-0.060884	0.124056	
0.322728	-0.004120	-0.053864	-0.031587	
-0.007172	0.017242	-0.047761	-0.130465	
-0.215304	0.061189	-0.039826	-0.347448	
-0.246738	0.067597	-0.021820	-0.192111	
-0.113070	0.057221	0.053559	-0.253757	
-0.015717	0.066072	0.073091	-0.489967	
-0.023651	0.145418	0.097506	-0.225376	
-0.077058	0.095675	0.137178	0.161899	
-0.084382	0.002899	0.067597	-0.268711	
0.027008	-0.089875	0.040132	0.054780	
0.092317	-0.149080	-0.043489	0.741741	
0.027008	-0.122225	-0.074616	0.478981	
-0.045625	-0.113985	-0.079804	0.127413	
-0.037690	-0.067292	-0.087739	0.055390	
0.068208	-0.040132	-0.019684	0.038301	
0.072175	0.004730	-0.007477	0.031281	
-0.032502	0.050202	-0.018158	0.153048	
-0.070039	0.150606	-0.008087	0.023651	
0.006256	0.143587	-0.007477	-0.094759	
0.149080	0.034333	-0.005951	-0.077363	
0.056916	-0.048066	0.008392	-0.106661	
-0.102388	-0.116121	0.011749	-0.100557	
-0.228428	-0.089570	-0.001678	-0.099337	
-0.146334	-0.005951	-0.012970	-0.119783	
-0.066377	0.036775	-0.002899	-0.131380	
-0.065461	0.034638	0.004120	-0.113375	
-0.045320	-0.065766	0.010529	-0.171359	
-0.063935	-0.176242	0.023346	-0.248264	
-0.043183	-0.152132	0.053559	-0.207980	
0.009003	0.010223	0.053559	-0.229649	
0.085298	0.103304	0.048982	-0.122835	
0.106356	0.194858	0.041657	0.012360	
0.144808	0.173495	0.034638	-0.480202	
0.249790	0.092317	0.025482	-0.635233	
0.144808	0.124666	0.022430	0.187228	
-0.029755	0.129549	0.030975	0.629129	
-0.028229	0.058137	0.034944	0.485695	
-0.003815	0.012360	0.009308	0.145418	
-0.050508	-0.077363	-0.006866	0.079194	
-0.026398	-0.117952	0.010529	0.286717	
-0.081330	-0.150911	0.001678	0.168612	
-0.113070	-0.202792	-0.059968	0.200046	
-0.053254	-0.164035	-0.065461	0.200046	
-0.080415	-0.049287	0.018463	-0.030060	
-0.146334	0.081635	0.069123	0.069734	
-0.150606	0.147249	0.077363	0.047151	
-0.085298	0.064851	0.070649	-0.051118	
0.056916	0.016022	-0.086518	-0.041963	
0.139315	0.038301	-0.192416	-0.058137	
0.105440	0.064851	-0.021820	-0.071565	
0.028534	0.038911	0.090791	-0.085603	
0.077363	-0.001373	-0.033723	-0.088349	
0.095369	-0.021820	-0.112459	-0.086518	
0.005646	-0.001678	0.084992	-0.079194	
-0.045014	0.048371	0.097811	-0.070649	
0.012970	0.044709	0.042573	-0.063935	
0.060884	0.041047	0.101473	-0.070344	
-0.017242	-0.015106	0.119478	-0.060578	
-0.080415	-0.029449	0.041047	-0.058137	
-0.124056	-0.046540	-0.009003	-0.048066	
-0.097200	-0.049592	-0.017242	0.000763	
-0.001984	-0.040132	-0.043794	-0.005951	
0.060273	0.005035	0.008392	-0.053254	
0.122835	0.046845	0.081635	-0.083772	
0.277561	0.090486	0.030060	-0.065461	
0.180820	0.084382	0.067597	-0.111849	
-0.037690	0.035249	0.222630	-0.040437	
-0.057527	0.016022	0.184176	0.175937	
-0.023651	-0.007172	0.018768	-0.076447	
0.030975	-0.111849	-0.036469	-0.449378	
0.062409	-0.168918	-0.045625	-0.316930	
-0.062409	-0.123446	-0.118868	0.187228	
-0.148775	-0.025482	-0.179599	0.311131	
-0.159457	0.017853	-0.114290	0.144503	
-0.129244	0.044709	-0.218356	0.128023	
-0.064240	0.068513	-0.230259	0.117952	
-0.037385	0.074922	-0.101473	0.120699	
0.052949	0.042268	0.101778	0.239414	
0.083161	0.010223	0.080720	0.122530	
0.030060	0.065156	0.081025	0.022430	
-0.019989	0.039216	0.046540	0.062409	
-0.045625	0.035249	0.018463	0.066072	
-0.070954	0.022430	-0.014496	-0.000153	
-0.039216	0.010529	0.016327	0.002594	
0.000458	-0.019073	0.016937	-0.050202	
0.044099	-0.071870	0.007782	-0.096895	
0.090486	-0.081635	0.009003	-0.123446	
0.150606	-0.054170	0.016327	-0.099642	
0.110628	-0.037080	0.019073	-0.157016	
-0.012054	-0.027924	0.019073	-0.134432	
-0.046540	0.055085	0.020599	-0.084992	
-0.127718	0.113070	0.015411	-0.003510	
-0.178683	0.080110	0.018463	-0.023346	
-0.148775	0.031892	0.028534	-0.330663	
-0.070039	0.044709	0.034333	-0.680095	
-0.024872	0.023346	0.041657	-0.404211	
0.017853	-0.022125	0.054780	0.188144	
0.014801	-0.071870	0.028839	0.335546	
-0.015411	-0.023956	0.002289	0.625467	
-0.108187	-0.008392	-0.020294	0.363317	
-0.110628	-0.057527	-0.022430	0.281529	
0.043794	-0.095675	0.008087	0.291905	
0.086213	-0.073396	0.019073	0.172885	
0.027008	0.054170	0.023346	0.104219	
0.088655	0.117037	0.053864	-0.058137	
0.144503	0.062715	0.034638	-0.106966	
0.036469	0.060273	-0.004425	-0.095675	
-0.051118	-0.019684	0.045014	-0.013275	
-0.060578	-0.149996	0.084992	0.040437	
0.153353	-0.221104	-0.023346	-0.076753	
0.310521	-0.236668	-0.153048	-0.009003	
0.147249	-0.196383	-0.164035	0.033723	
0.039826	0.056916	-0.060578	-0.093843	
-0.018158	0.181735	-0.055390	-0.087434	
-0.054170	0.193027	0.024872	-0.121614	
-0.052033	0.406347	0.188449	-0.100863	
-0.010834	0.366064	0.129549	-0.118258	
-0.055696	0.119783	0.079499	-0.067903	
-0.130159	-0.005646	0.078889	-0.031892	
-0.135958	-0.043183	0.054780	-0.110933	
-0.184787	-0.196689	-0.002899	-0.223545	
-0.150606	-0.390173	-0.069123	-0.142366	
-0.088655	-0.362097	-0.082246	0.049897	
-0.036469	-0.218662	-0.084382	0.092317	
0.039826	-0.035554	-0.004425	-0.027924	
-0.041047	0.151827	0.063020	0.129244	
-0.086213	0.095675	-0.038301	-0.062104	
-0.022430	0.081025	0.122225	-0.099031	
-0.014191	0.231785	0.124361	0.184482	
0.056611	0.282140	0.058747	0.092622	
0.078889	0.177157	0.026398	-0.003510	
-0.001678	0.084077	0.037080	0.120089	
-0.020905	-0.017853	0.016327	0.068513	
-0.002899	-0.029144	0.013885	-0.109102	
-0.023956	-0.053254	0.044709	-0.208896	
-0.034333	-0.102083	0.030670	-0.436866	
0.060273	-0.106356	0.014801	-0.127108	
0.084687	-0.062409	-0.041963	0.354162	
0.050813	-0.019073	-0.056001	0.086518	
0.012054	-0.030060	-0.041657	-0.082246	
0.040742	-0.003510	0.080110	-0.123140	
0.128939	0.001678	0.042573	-0.068208	
0.219578	0.028229	-0.077668	0.305028	
0.126497	0.063020	-0.039826	0.275120	
0.015717	0.081330	-0.001068	-0.063935	
-0.034333	0.109102	-0.038301	0.002594	
-0.083467	0.108797	-0.044099	0.435950	
-0.088044	0.060578	-0.019073	0.051118	
-0.099642	-0.021210	-0.018463	-0.227512	
-0.133516	-0.043794	-0.008087	-0.066377	
-0.127718	-0.055085	0.016327	0.032197	
-0.064240	-0.059968	0.042268	0.309606	
-0.037690	-0.083772	0.024872	0.165866	
0.005951	-0.059052	0.023041	-0.102999	
-0.037385	-0.006256	0.029144	-0.151522	
-0.044099	0.030365	0.065156	-0.180820	
-0.000763	0.004425	0.046235	-0.129854	
0.049897	-0.015411	-0.009918	-0.019989	
0.034028	-0.061494	-0.106356	0.168918	
0.017242	-0.099642	-0.144503	-0.016632	
0.043794	-0.049592	-0.095980	-0.057221	
0.040437	-0.039216	-0.034028	0.086823	
0.017853	-0.037080	0.084687	-0.007172	
0.009613	0.000458	0.094759	-0.032197	
0.067903	0.034333	0.110323	-0.042268	
0.100557	0.035859	0.101473	-0.038606	
0.013885	0.042878	-0.009003	-0.039521	
0.005646	0.040132	-0.072785	-0.087129	
0.028839	0.040437	-0.135347	-0.272678	
-0.019379	0.056306	-0.176242	-0.337987	
-0.025787	0.087739	-0.074616	0.038301	
0.001678	0.052644	0.053559	0.123140	
0.037995	-0.048371	0.109407	0.095675	
0.050813	-0.107576	0.355993	0.124056	
-0.052339	-0.046235	0.369726	0.007782	
-0.103609	0.068818	0.038911	0.026398	
0.056306	0.153048	-0.048676	-0.022430	
0.227512	0.123140	-0.035554	-0.025787	
-0.006256	0.088960	-0.023651	-0.026703	
-0.189670	0.129244	-0.030365	-0.013275	
-0.248569	-0.012360	-0.035859	-0.014191	
-0.215304	-0.160983	-0.056611	-0.015106	
-0.168612	-0.123751	-0.078279	-0.041963	
-0.183261	-0.121920	-0.029755	-0.102694	
-0.120394	-0.150606	-0.034028	-0.157931	
-0.039826	-0.053254	-0.029755	-0.116121	
-0.049897	-0.006256	-0.013580	0.112154	
-0.015106	0.036164	-0.057832	0.156404	
-0.025177	0.060578	-0.034333	0.039826	
0.079804	-0.002289	0.091706	-0.029755	
0.184176	0.004730	0.077058	-0.126192	
0.185397	0.042573	0.027924	-0.063325	
0.192111	0.040437	0.042573	0.027313	
0.176242	0.044099	0.063020	-0.058442	
0.063935	0.050508	0.066682	0.049897	
0.032502	0.060884	0.042268	0.151522	
0.282445	0.074922	0.015411	-0.026398	
0.330052	0.122530	-0.007477	0.113680	
-0.019989	0.107576	-0.001678	0.189364	
-0.171664	0.087739	0.039216	0.008698	
-0.160068	0.149691	0.016327	0.089875	
-0.168002	0.048982	-0.062104	-0.000153	
-0.150301	-0.102083	-0.017548	0.003204	
-0.137789	-0.201266	0.117952	0.028229	
-0.182345	-0.277866	0.099642	0.015106	
-0.140230	-0.243382	0.011139	-0.024261	
-0.033418	-0.183261	-0.062409	-0.023956	
0.029144	-0.110323	-0.113070	-0.032807	
0.068818	0.002594	-0.086213	-0.039521	
0.095369	0.066682	-0.060273	-0.059052	
0.142366	0.110933	-0.057832	-0.046235	
0.242771	0.088349	-0.051728	-0.048371	
0.156404	0.095064	-0.046845	-0.037385	
0.027313	0.082856	-0.028229	-0.053864	
-0.063325	0.099642	-0.038301	-0.135653	
-0.144503	0.092622	-0.012360	-0.174716	
-0.218356	0.046235	0.027924	-0.102083	
-0.207980	0.014496	0.088655	-0.126497	
-0.220188	-0.068208	0.302281	-0.150301	
-0.181430	-0.116732	0.300145	0.005341	
-0.075837	-0.081330	0.102388	0.064851	
0.025787	0.038911	0.051728	0.099642	
0.059968	0.108187	-0.103304	0.097506	
0.030975	0.131685	-0.178683	-0.152742	
0.070344	0.054475	-0.124056	-0.096590	
0.061189	-0.046235	0.105135	0.071870	
0.042268	-0.069123	0.019073	0.330663	
-0.034333	0.030975	-0.108187	0.432899	
0.036469	0.028229	-0.085298	0.020905	
0.141451	-0.005341	-0.067597	-0.119478	
0.019073	-0.000153	0.018768	-0.259861	
-0.024872	-0.039826	0.115511	-0.465247	
0.034333	-0.106050	0.032807	-0.152742	
0.205234	-0.183871	-0.049287	0.513466	
0.188449	-0.186313	-0.055696	0.245213	
-0.028229	-0.165256	-0.056001	-0.170138	
-0.105135	-0.043794	-0.052644	-0.201571	
-0.164035	0.044709	0.057221	0.391394	
-0.154268	0.104219	0.152132	0.425574	
-0.057527	0.143282	0.152132	0.012054	
-0.016937	0.132906	0.162814	0.192416	
-0.029144	0.037385	0.105440	0.077973	
-0.040132	0.000153	0.051118	0.016937	
0.006561	0.054780	-0.027008	-0.058747	
0.041047	0.073396	-0.076447	-0.063325	
0.075837	0.060578	-0.104525	-0.052644	
0.045014	0.043183	0.026093	-0.074006	
0.009613	0.030670	-0.006866	-0.061799	
-0.015411	0.026093	-0.173495	-0.091706	
-0.052949	0.024872	-0.103914	-0.103914	
-0.069734	0.020599	-0.042268	-0.113985	
-0.034944	0.023041	0.019989	-0.099642	
0.052033	0.005035	-0.016022	-0.103304	
0.127413	-0.000153	0.047761	-0.118258	
0.084992	0.008392	0.075837	-0.135347	
0.046845	0.055390	0.028534	-0.125277	
-0.025787	0.011749	0.043489	-0.145418	
-0.050508	-0.012360	0.050202	-0.111544	
0.012970	0.022430	0.040132	-0.031892	
0.056916	0.011749	0.024872	-0.050813	
0.011139	-0.009308	0.012665	0.034638	
0.006256	-0.078584	0.005035	0.183261	
0.026398	-0.150911	-0.000153	0.046845	
-0.016937	-0.132906	-0.003815	-0.125887	
-0.097811	-0.082856	0.004425	-0.216830	
-0.053864	-0.029449	0.019379	-0.256199	
0.016327	-0.000763	0.030060	-0.126192	
-0.003510	0.027924	0.019989	0.107576	
0.089875	0.046845	0.028229	0.508583	
0.121920	-0.005341	0.005035	0.297399	
-0.022430	0.005951	-0.007477	0.029755	
-0.071259	0.056306	-0.015106	0.096285	
-0.113070	0.096285	-0.027313	0.092927	
-0.175326	0.087739	-0.056001	0.038606	
-0.099947	0.045320	-0.048371	-0.010223	
0.012970	0.001984	-0.057527	-0.089265	
-0.021820	-0.047761	-0.033418	-0.060578	
-0.033723	-0.020294	0.012665	0.132906	
0.078584	0.040437	0.068818	0.099947	
0.107882	0.029144	0.144808	0.016022	
-0.003510	0.004120	0.129854	-0.034944	
-0.078279	0.017853	-0.025787	-0.037385	
-0.121614	0.017242	-0.054780	-0.179294	
-0.048982	0.009308	0.048982	-0.355383	
0.124971	-0.054475	0.006561	-0.397192	
0.248264	-0.075837	-0.046235	-0.106966	
0.073396	-0.029755	-0.071870	0.000153	
-0.051423	0.012970	-0.037690	-0.015106	
-0.099031	-0.011749	0.025177	0.172885	
-0.133211	-0.015411	0.154879	-0.120394	
-0.051728	0.016327	0.063630	-0.311131	
0.000763	-0.005646	-0.044404	-0.519264	
-0.063325	-0.023041	-0.009918	-0.055696	
-0.061494	0.005951	0.079804	0.688945	
0.031892	0.018768	0.149691	0.920272	
0.054475	-0.031281	0.107882	0.290074	
0.026398	-0.041963	0.039216	0.131075	
-0.019073	0.018158	-0.025787	0.381933	
-0.070954	0.032197	-0.048676	0.118868	
-0.066987	-0.006866	-0.055696	0.080415	
-0.069734	-0.080415	-0.034028	0.097811	
-0.023956	-0.111849	-0.035554	-0.021820	
0.019073	-0.033113	-0.052949	-0.053254	
0.052033	-0.012054	-0.049287	-0.102694	
0.037690	-0.001984	-0.050508	-0.113985	
0.019684	0.070039	-0.035859	-0.112154	
-0.018158	0.118868	-0.014496	-0.112154	
-0.023041	0.160068	0.001984	-0.147860	
-0.002289	0.077668	-0.004425	-0.234837	
-0.012054	0.041047	-0.017242	-0.219883	
-0.031281	0.003815	0.006866	-0.115816	
-0.015106	-0.027008	0.040742	-0.009308	
0.111544	0.008698	0.042268	0.016632	
0.165256	0.005646	0.029449	-0.023651	
-0.021210	-0.039521	0.027008	-0.031587	
-0.116732	-0.041047	0.028839	-0.045930	
-0.107271	-0.038606	0.021210	0.046845	
-0.019989	-0.023346	0.020599	-0.038606	
-0.034944	0.004120	0.000153	-0.162814	
-0.095980	0.048371	0.001984	-0.285802	
-0.024261	0.056916	-0.005341	-0.288548	
0.099031	0.083467	0.005035	-0.294652	
0.098116	0.080415	0.029144	-0.060578	
0.051118	0.041963	0.035554	0.512856	
0.005035	0.015106	0.015411	0.237888	
0.012360	0.004425	-0.015717	0.043183	
0.046540	0.004425	-0.012360	0.142366	
0.032807	0.023956	0.056306	0.128633	
0.011749	0.037995	0.128328	0.064851	
0.016632	-0.030975	0.074922	0.026093	
-0.011444	-0.080110	0.034944	-0.034944	
-0.044099	-0.055085	0.015411	-0.093537	
-0.077668	-0.051728	-0.001373	-0.053864	
-0.066072	-0.036469	-0.037995	0.044709	
-0.011139	0.008087	-0.057832	0.176242	
0.062104	0.014801	-0.043183	-0.008087	
0.092011	0.023041	-0.018158	-0.038301	
0.022430	0.048982	-0.036469	-0.005646	
-0.075532	0.008087	-0.041657	-0.029755	
-0.097506	-0.069734	-0.019989	-0.021820	
-0.016937	-0.117647	0.001984	-0.023651	
0.031281	-0.083467	0.028229	-0.032502	
0.028839	-0.059663	0.046540	-0.037690	
-0.005951	-0.086823	-0.004120	-0.038911	
0.029755	-0.046235	-0.116426	-0.033418	
0.070039	-0.004120	-0.204928	-0.037690	
0.043183	0.044099	-0.044099	-0.186313	
0.016327	0.064851	0.180514	-0.335546	
-0.019073	0.084077	0.162204	-0.429847	
0.008392	0.139620	0.125277	-0.384375	
0.071259	0.151522	0.109713	0.034638	
0.043183	0.139009	0.092622	0.211337	
-0.091096	0.115206	0.056306	0.077668	
-0.191806	0.068818	0.016327	0.476540	
-0.159762	-0.025177	-0.020294	0.488747	
-0.062104	-0.092011	-0.032197	0.153658	
0.048676	-0.157931	-0.034028	0.081330	
0.102694	-0.127718	-0.028534	0.157626	
0.041963	-0.067292	-0.014496	0.192416	
-0.013580	-0.031281	0.004425	-0.095675	
-0.030975	0.009003	0.007172	0.016022	
-0.022430	0.018768	0.009308	0.075532	
-0.017548	0.029755	0.001068	0.071870	
-0.009308	0.025177	-0.019379	0.012054	
0.056611	0.030975	0.001984	-0.053864	
0.059358	0.026703	0.006866	-0.070344	
0.021820	0.013885	0.008087	-0.080720	
-0.009003	-0.014191	0.004425	-0.093843	
-0.023346	-0.005646	0.019989	-0.074922	
-0.072480	-0.024261	0.021210	-0.082246	
-0.121920	-0.032197	0.065461	-0.072175	
-0.201877	-0.042268	0.091096	-0.071565	
-0.149691	-0.013580	0.061494	-0.073091	
-0.019684	-0.034333	0.020294	-0.106661	
0.054475	-0.032197	-0.044404	-0.132296	
0.108797	0.029144	-0.080720	-0.097200	
0.192111	0.025787	-0.098726	-0.061799	
0.148165	0.016327	-0.126802	-0.004425	
0.052033	0.031281	-0.052033	0.020905	
0.035859	0.041047	-0.019073	-0.113985	
0.070649	0.054170	-0.077668	-0.213473	
-0.021515	0.053559	-0.074922	-0.253147	
-0.054475	0.047456	-0.066987	-0.026398	
-0.088349	0.054780	-0.019073	0.188144	
-0.082246	0.027924	0.178683	0.149080	
0.014496	-0.005341	0.171969	0.181125	
0.045320	-0.041047	0.133516	0.251011	
-0.045930	0.020905	0.097506	0.150606	
-0.095980	0.002899	0.019989	0.031281	
-0.121309	-0.067597	-0.005646	0.044709	
-0.091096	-0.120394	-0.037690	0.005341	
-0.069123	-0.145113	-0.001678	-0.013580	
-0.092011	-0.095369	0.038606	-0.025177	
-0.077363	0.005951	0.003204	-0.061799	
-0.023956	0.074311	-0.033113	-0.123751	
0.106050	0.125582	0.098116	-0.133516	
0.182956	0.148775	-0.056306	-0.128939	
0.008698	0.051118	0.048676	-0.141146	
-0.141756	0.043489	0.166476	-0.014191	
0.006866	0.118563	0.081941	0.148470	
0.152132	0.181735	0.091706	0.058137	
0.150911	0.079194	0.047761	0.014496	
0.111238	-0.008392	0.024261	-0.036469	
-0.052949	-0.041963	0.004730	0.036775	
-0.196078	-0.077668	-0.005646	-0.013275	
-0.138399	-0.067292	-0.023956	-0.143587	
0.083161	-0.078279	-0.047456	0.007172	
0.119173	-0.133821	-0.012970	0.267796	
0.043794	-0.100863	-0.010223	0.254978	
-0.041963	-0.001678	-0.038606	0.074006	
-0.067597	-0.034028	-0.049287	0.009308	
-0.034333	-0.077973	-0.047456	0.053864	
0.059358	-0.080415	-0.070649	0.063020	
0.099947	-0.049592	-0.065461	0.014191	
0.051118	0.046540	-0.034638	-0.026093	
0.034638	0.089570	-0.001373	-0.031587	
0.050813	0.023346	0.002594	-0.051118	
0.076753	0.018768	0.019989	-0.062409	
0.013275	0.012970	0.018768	-0.070954	
-0.021820	0.012665	0.008698	-0.063935	
-0.046540	0.004730	0.009003	-0.137484	
-0.032197	0.027313	0.049287	-0.170749	
-0.018463	0.042268	0.055390	0.072175	
-0.017548	0.048371	0.008392	0.058137	
0.064546	0.032197	-0.080720	-0.074006	
0.139315	0.038911	-0.082246	-0.073396	
0.114290	0.065461	0.015411	-0.091706	
0.070954	0.041352	-0.030365	-0.071565	
-0.004425	0.019989	-0.093843	-0.006256	
-0.089265	0.029144	-0.083772	0.102083	
-0.043183	0.021820	-0.004120	0.039521	
0.062409	-0.013885	0.071565	-0.034333	
-0.003815	-0.051118	0.084992	-0.007477	
-0.014191	-0.078584	0.043183	-0.034944	
0.159457	-0.057527	0.070954	-0.106966	
0.169528	-0.016022	0.064851	-0.129549	
-0.019073	-0.013580	0.051118	-0.011444	
-0.287938	-0.025787	0.033113	0.056916	
-0.451209	-0.006256	0.009918	0.069734	
-0.404211	0.005646	0.012970	-0.088349	
-0.209506	-0.032197	0.001984	-0.225376	
-0.162204	-0.070039	0.050202	-0.199740	
-0.258030	-0.043489	0.035554	-0.132601	
-0.216220	0.014496	-0.096590	-0.174106	
-0.124361	0.009003	-0.132296	0.057221	
-0.044099	0.000458	-0.023346	0.354162	
0.072785	0.012360	0.075837	0.431983	
0.156099	0.056916	0.122225	0.129549	
0.149080	0.039826	0.118563	0.065766	
0.147249	0.036164	0.032807	0.248569	
0.111238	0.019989	0.018158	0.233921	
0.114290	0.022125	0.168002	0.199740	
0.105440	0.020599	0.208285	0.066987	
0.097200	0.023346	-0.044709	-0.056916	
0.072785	0.026093	-0.117647	-0.077668	
0.063325	0.033113	-0.106356	-0.120394	
0.070039	0.045014	0.006256	-0.090486	
0.030365	0.048676	0.101778	-0.238194	
-0.015411	0.018158	0.053254	-0.388037	
0.038606	-0.011749	0.053559	0.081330	
0.085298	-0.049592	0.044404	0.193027	
0.103304	-0.031281	-0.055696	0.191501	
0.052033	-0.030060	-0.123446	0.086823	
-0.002899	-0.027924	-0.071565	0.017548	
-0.009308	-0.010834	-0.066987	-0.003204	
-0.005035	-0.009918	0.023346	-0.060273	
-0.019989	0.004120	-0.021820	-0.054475	
-0.074311	0.024872	-0.023041	-0.109407	
-0.087434	0.033418	-0.001068	-0.128328	
-0.046540	-0.001678	-0.009003	0.002289	
0.014191	0.000153	0.003204	-0.053254	
0.013275	-0.006256	-0.002289	-0.033418	
0.010834	-0.015106	-0.002899	-0.050813	
-0.027924	-0.015106	-0.025482	-0.107576	
-0.016937	-0.019073	-0.031892	-0.137789	
0.050813	-0.030060	-0.040437	-0.166171	
0.037080	0.020294	0.005951	-0.193027	
0.040132	0.057221	0.070039	-0.218051	
0.040742	0.024567	0.068513	0.047151	
0.024872	0.008698	0.047456	0.167697	
-0.041963	-0.001373	0.036164	0.201266	
-0.070039	-0.000763	0.027313	0.089875	
-0.045320	-0.004120	-0.021515	-0.336156	
-0.031587	0.007172	-0.026093	-0.603800	
-0.034333	-0.021515	-0.008087	-0.866255	
-0.022125	-0.023956	0.039216	-0.343175	
-0.059663	0.026703	0.051728	0.987411	
-0.083772	0.104830	0.047151	0.750896	
0.016327	0.091706	0.024261	0.072480	
0.105440	0.078889	0.026093	0.511330	
0.090180	0.054780	0.007172	0.354467	
0.085908	0.007172	-0.005951	0.143587	
0.082551	-0.039521	-0.003815	0.250401	
0.078279	-0.061799	0.008392	0.208896	
0.023041	-0.067292	0.006256	0.232395	
-0.037080	-0.031281	0.010834	0.079804	
-0.120089	0.000763	0.017853	-0.072175	
-0.121920	-0.003204	0.015411	-0.148470	
-0.083467	-0.015106	0.026398	-0.147860	
-0.124666	-0.030365	0.042573	-0.080415	
-0.081635	-0.062715	0.055390	-0.095980	
-0.047151	-0.069428	0.029144	-0.186618	
-0.019073	-0.029755	0.050202	-0.224155	
0.040742	-0.012054	0.027924	-0.249180	
0.142366	0.012970	0.002594	0.045930	
0.114901	0.020905	-0.007477	-0.065156	
0.016632	0.028229	-0.041352	-0.402380	
-0.056001	0.020905	-0.100863	-0.357519	
-0.051728	0.051423	-0.031892	-0.301366	
-0.021820	0.050508	0.024872	-0.000763	
-0.023346	0.030975	-0.019379	0.262302	
-0.021820	0.019379	-0.023041	-0.068208	
-0.000763	0.013885	-0.019073	0.359045	
0.016327	0.017242	0.027313	0.216525	
0.048066	0.021820	0.025177	0.209506	
0.033723	0.034333	0.038606	0.312657	
-0.086213	0.040742	0.030670	0.137484	
-0.129549	0.033113	0.028839	0.057832	
-0.140535	-0.016937	0.029449	-0.065156	
-0.141756	-0.031892	0.001984	-0.133516	
-0.069428	-0.051423	-0.001068	0.074006	
-0.018158	-0.079194	0.004730	0.023651	
-0.007172	-0.043183	-0.015717	-0.140535	
0.016937	0.014496	-0.003815	-0.153658	
0.026398	0.024872	0.001068	-0.149996	
0.058442	0.018768	0.021210	-0.181125	
0.104219	0.002899	0.081025	-0.108187	
0.068818	-0.021210	0.039216	0.013885	
0.005951	-0.045320	-0.001678	0.054170	
-0.048371	-0.025787	-0.016022	-0.016327	
-0.018158	0.023956	0.020294	-0.023651	
0.003204	0.020294	0.013275	-0.091706	
0.005951	0.020905	0.010529	0.005951	
0.022125	0.022125	0.053559	-0.003510	
0.012665	0.014191	0.032807	-0.012360	
-0.009613	-0.019379	0.038606	0.112154	
0.002594	-0.016937	0.088044	-0.086213	
0.027008	-0.006866	0.040742	-0.005646	
0.088349	0.001984	0.018463	0.121920	
0.139009	0.026398	-0.089265	-0.028229	
0.089875	0.037995	-0.199435	-0.123446	
-0.017548	0.042573	-0.166781	-0.043489	
-0.009308	0.038301	-0.007172	0.076142	
0.031892	0.016937	0.108187	0.118868	
0.005951	0.023956	-0.104830	0.063935	
0.102694	0.029144	-0.132601	0.005341	
0.080415	0.031892	-0.040742	0.015106	
-0.059052	0.009003	0.214694	-0.006256	
-0.127413	-0.038606	0.076447	-0.062409	
-0.132296	-0.045625	-0.012360	-0.307164	
-0.043794	-0.069123	0.014496	-0.392614	
-0.020905	-0.026398	0.050508	-0.103914	
-0.012970	-0.027924	0.128328	0.096895	
-0.053254	-0.017242	0.102999	0.224155	
-0.025177	0.001984	-0.000763	0.366980	
0.120394	0.042573	-0.001678	0.083772	
0.126802	0.052644	0.031281	-0.082246	
0.025787	0.066377	-0.005951	-0.027924	
0.060578	0.036775	0.000153	-0.046540	
0.004120	-0.022125	-0.001678	0.060273	
-0.111849	-0.054170	0.026703	0.176852	
-0.160678	-0.049897	0.005951	0.059968	
-0.211337	-0.080415	-0.013885	-0.028534	
-0.286717	-0.106356	-0.012360	-0.040132	
-0.173190	-0.003815	-0.019989	-0.087739	
0.032197	0.059968	-0.022430	-0.039521	
0.049897	0.084077	-0.012054	0.136263	
0.058137	0.095064	-0.012360	0.059052	
0.008087	0.143282	-0.006866	0.029449	
-0.027924	0.095675	0.008087	-0.014496	
0.006561	-0.027008	0.012970	-0.061799	
0.027924	-0.094759	0.013275	-0.083161	
0.020599	-0.108492	0.012970	-0.064546	
0.020599	-0.104219	-0.012970	-0.011139	
0.034944	-0.053254	-0.012054	-0.129854	
0.034028	-0.009613	0.001678	-0.250401	
0.045014	0.043489	0.027008	-0.370337	
0.055390	0.103609	0.026093	-0.459449	
0.049897	0.095675	0.051423	-0.247044	
0.005035	0.013275	0.038911	0.189059	
-0.026398	0.014496	0.007782	0.320287	
-0.035249	0.005646	-0.022125	0.322423	
0.020905	-0.005035	-0.026398	0.183871	
0.138704	0.028534	-0.001678	0.199130	
0.212253	0.028229	0.004120	0.218661	
0.182651	0.056306	0.011749	0.336766	
0.026093	0.072480	-0.019073	0.124971	
-0.135347	0.055085	-0.019073	-0.028839	
-0.172275	0.024872	-0.004425	0.045625	
-0.085298	0.014801	0.037080	0.144503	
-0.084077	-0.032502	0.061799	0.048066	
-0.010834	-0.096895	0.039216	-0.016022	
0.067292	-0.104219	0.016022	-0.052644	
0.024261	-0.094149	-0.027313	-0.098726	
-0.083161	-0.122530	-0.046540	-0.143282	
-0.107576	-0.062409	-0.027008	-0.143587	
-0.067292	-0.001984	-0.013580	-0.151522	
-0.037690	0.031281	-0.056916	-0.171359	
0.001068	0.059052	-0.045625	-0.047151	
-0.028229	0.066987	0.122225	0.017548	
-0.033723	0.059968	0.165561	-0.063020	
0.001984	0.010834	0.051728	-0.179294	
0.023956	-0.007782	0.033418	-0.180209	
0.016937	-0.000763	0.039521	-0.167697	
0.018463	0.033418	0.044709	-0.111849	
0.048371	0.030365	0.028534	-0.034944	
0.008698	0.005035	0.013275	-0.236362	
-0.012054	-0.035249	-0.006866	-0.049592	
-0.041047	-0.055696	0.001678	0.451819	
-0.020294	-0.037385	0.001678	0.183261	
0.026093	0.001984	0.000153	0.074616	
-0.002289	0.093537	-0.001678	0.075227	
-0.025787	0.097506	-0.003204	0.063020	
-0.023346	0.025787	-0.008087	0.005951	
-0.017853	-0.014801	-0.009918	0.117342	
-0.031587	-0.039826	-0.012054	0.077363	
0.022736	-0.049592	-0.032502	-0.033723	
0.137178	-0.027924	-0.027008	0.021210	
0.054170	-0.065156	-0.019379	-0.026703	
0.043183	-0.069123	-0.012054	-0.157016	
0.024872	-0.013885	-0.000153	-0.244602	
0.029144	-0.017853	0.025482	-0.467689	
0.020294	0.044709	0.089265	-0.055696	
-0.093843	0.100863	0.117342	0.623636	
-0.170138	0.046540	0.048982	0.186923	
-0.082551	0.019073	0.012665	0.068208	
-0.001984	-0.008392	-0.036775	0.116426	
0.030670	-0.025482	-0.120699	0.048676	
0.024872	-0.027618	-0.192416	0.036469	
0.002289	-0.007172	-0.203403	-0.000763	
0.021210	0.014801	-0.141146	-0.017242	
0.042878	0.028229	-0.117647	-0.032807	
0.000153	0.004120	0.073701	-0.045014	
-0.025177	-0.025787	0.113375	-0.039521	
0.034638	-0.026093	0.072480	-0.107882	
0.142366	-0.018463	0.223240	-0.249180	
0.076142	0.044709	0.254978	-0.139315	
-0.023956	0.077058	0.168918	-0.069428	
-0.036469	0.091096	0.057221	-0.168918	
0.032807	0.079194	0.045625	-0.106050	
0.066072	0.027924	0.042268	-0.118258	
-0.068208	0.000153	0.021210	-0.095369	
-0.147249	-0.034944	0.019379	-0.005951	
-0.161288	-0.089875	0.004120	0.294347	
-0.164645	-0.088044	-0.019684	-0.005341	
-0.070954	-0.077668	0.002289	-0.207065	
0.132906	-0.055390	0.008392	-0.115206	
0.165256	-0.051118	-0.001068	0.221714	
0.134432	-0.012360	-0.015717	0.243992	
0.037995	0.093537	-0.018463	0.382849	
-0.107271	0.219578	-0.029449	0.211337	
-0.199740	0.250095	-0.031587	-0.012054	
-0.131380	0.122530	-0.026398	0.139009	
-0.032197	0.037995	-0.009613	0.224155	
0.012665	-0.078279	-0.019073	0.026093	
0.032807	-0.152132	-0.052033	-0.030670	
0.012054	-0.140230	-0.054170	-0.053254	
0.001678	-0.054170	-0.035859	-0.070344	
0.000763	-0.005951	-0.020294	-0.077363	
-0.005951	0.054170	-0.036164	-0.075227	
-0.063630	0.039216	-0.023041	-0.081025	
-0.077668	-0.037995	0.009918	-0.013275	
-0.055696	-0.022125	-0.009003	0.006561	
0.013275	-0.062409	-0.051423	-0.140230	
0.076753	-0.063935	-0.040132	-0.183566	
0.005646	0.054170	0.116121	-0.045930	
0.087129	0.074311	0.138094	-0.021515	
0.121920	0.023346	0.052949	-0.084687	
0.019989	0.068818	0.064546	-0.078889	
-0.001068	0.052339	0.041657	-0.128939	
0.104219	-0.012970	0.025482	-0.074311	
0.229649	-0.038606	0.009003	0.038911	
0.112154	-0.031587	0.013885	-0.197604	
-0.046235	-0.070344	0.001068	-0.069428	
-0.127108	-0.054170	0.010834	-0.036775	
-0.112154	-0.041963	0.014191	-0.041963	
-0.135653	-0.011444	0.008392	0.051728	
-0.198825	0.032502	0.010834	-0.163730	
-0.217746	-0.042268	0.012665	-0.127108	
-0.117342	-0.062715	0.022736	0.364233	
-0.028839	-0.047151	0.018463	0.184176	
0.018768	-0.009918	0.014191	0.118563	
0.037080	0.052033	0.010529	0.051423	
0.028839	0.102388	0.019989	-0.107271	
0.033723	0.111544	0.037080	-0.152132	
0.060884	0.085603	0.016937	0.059358	
0.058137	0.038911	-0.013885	0.280003	
0.005646	0.016937	-0.013580	0.070039	
-0.020294	-0.005646	-0.042573	-0.043794	
-0.013275	-0.029755	-0.048676	0.006866	
-0.006256	-0.038301	-0.039826	0.288243	
-0.019684	-0.057527	-0.038606	0.257725	
-0.058442	-0.061799	-0.016937	0.009308	
-0.003204	-0.003510	0.020294	0.037080	
0.014801	0.034333	0.022430	0.003204	
0.020599	0.051118	0.033418	-0.022125	
0.091401	0.039216	0.043183	-0.057221	
0.117342	0.027313	0.028534	-0.091096	
0.093232	0.049287	-0.050202	-0.101168	
0.074006	0.047456	-0.116121	-0.124971	
0.048371	0.019073	-0.009308	-0.149996	
0.012360	-0.023651	0.079804	-0.083161	
-0.019684	-0.041963	0.066377	-0.009003	
-0.071565	-0.045930	0.026093	-0.156099	
-0.073091	-0.027924	0.033418	-0.364538	
-0.049897	-0.019073	0.042268	-0.405432	
-0.025482	0.005646	0.010223	-0.281835	
-0.005646	0.029144	0.001678	-0.030365	
-0.001984	0.028229	0.023041	0.625467	
0.003204	0.037080	0.036775	0.437781	
0.030975	0.044709	0.050813	0.137178	
0.040437	0.030365	0.053559	0.123140	
0.044099	0.009003	0.021515	0.098116	
0.119173	-0.012054	-0.012970	-0.031281	
0.036469	-0.032197	-0.009308	-0.180209	
-0.080110	-0.031587	0.001678	-0.279087	
-0.023346	-0.006256	-0.006866	-0.530861	
0.003204	0.022736	-0.003204	-0.528419	
-0.099642	-0.018463	0.001678	0.142672	
-0.141146	-0.063935	0.002594	0.666972	
0.002289	-0.080110	-0.022125	0.509193	
0.074616	-0.092011	-0.011444	0.127108	
0.028839	-0.066682	-0.018158	0.161899	
-0.031281	0.076447	-0.013275	0.088655	
-0.109407	0.174106	-0.016022	0.034944	
-0.017548	0.175632	-0.029755	0.005951	
-0.001068	0.121309	-0.033418	-0.070344	
-0.081635	-0.014801	0.031587	-0.165866	
-0.154268	-0.078584	0.077058	-0.245213	
-0.058137	-0.073701	0.051423	-0.460975	
0.060273	-0.007782	0.003204	-0.290380	
0.082856	0.024261	-0.088960	0.283971	
-0.018463	0.025177	-0.124971	0.285802	
-0.080110	0.004120	0.066682	0.131380	
-0.072175	0.017853	0.158237	-0.017242	
-0.055696	-0.026398	0.083161	-0.000153	
0.000458	-0.122530	0.030670	0.089265	
0.016937	-0.160983	0.021515	0.090180	
0.040437	-0.100863	0.023346	0.047456	
0.077363	-0.039216	0.004730	-0.019379	
0.090180	0.025177	-0.011749	-0.053864	
0.107882	0.076753	-0.005646	-0.174411	
0.100557	0.143892	0.005341	-0.014191	
0.023956	0.161593	0.007172	0.102999	
0.103914	0.162814	-0.006866	0.014496	
0.196994	0.082246	-0.037690	-0.071565	
0.048676	-0.034944	-0.072175	-0.073091	
-0.051118	-0.096895	-0.045930	-0.062715	
-0.115511	-0.126497	-0.000153	-0.046235	
-0.180209	-0.144808	0.041657	0.042573	
-0.182040	-0.114901	0.088960	0.046845	
-0.113375	-0.051423	0.081635	-0.068818	
-0.070344	0.026703	0.048982	-0.053254	
-0.055696	0.084992	0.030670	-0.037690	
-0.010223	0.105745	0.046235	-0.021515	
0.002289	0.047456	0.073701	-0.024567	
-0.036164	0.039216	0.024567	-0.105135	
0.011139	0.046540	-0.015411	-0.120089	
0.079194	0.066072	-0.037385	-0.203097	
0.104830	0.088349	-0.023346	-0.080110	
0.044404	0.076447	-0.008392	0.256199	
0.022430	0.035249	-0.014191	-0.002899	
-0.037080	-0.021515	-0.030365	-0.059968	
-0.082246	-0.019379	-0.012970	-0.002289	
-0.107576	-0.027008	-0.001678	0.023346	
-0.085603	-0.068513	-0.012360	0.106050	
-0.017242	-0.075837	0.003815	0.041352	
0.037080	-0.090180	0.007782	0.135042	
0.054170	-0.089265	-0.000763	0.134432	
0.052644	-0.046540	-0.004425	0.048982	
0.142977	-0.005035	-0.001068	0.000458	
0.272678	0.005951	-0.025177	0.029144	
0.274509	0.010223	-0.009613	0.015106	
0.174106	0.061494	0.022125	-0.076753	
0.087434	0.118868	0.060578	-0.129854	
-0.063630	0.099642	0.068818	-0.132601	
-0.145418	0.054780	0.027008	-0.131075	
-0.218356	0.028534	-0.000153	0.040437	
-0.275730	-0.019379	-0.025787	0.104830	
-0.316625	-0.050202	-0.023651	-0.090791	
-0.216830	-0.059968	-0.004425	-0.169833	
-0.027924	-0.078279	0.014496	0.075837	
0.042268	-0.045014	0.007172	0.405432	
0.036469	0.019379	0.006561	0.011444	
-0.064240	0.039826	0.016632	-0.318761	
-0.167392	0.021820	0.015411	-0.190280	
-0.122530	-0.007477	0.008698	-0.331883	
-0.001068	-0.021820	0.006866	-0.455482	
0.016327	-0.008087	0.000153	0.054170	
0.048982	0.042268	0.014191	0.256199	
0.094454	0.048676	0.026398	0.425269	
0.226902	0.068818	0.027313	0.054170	
0.330968	0.025787	0.002594	0.259251	
0.180209	-0.009918	-0.001068	0.417335	
0.000153	-0.099947	-0.001678	0.275425	
-0.048066	-0.114595	0.008392	0.062104	
0.087434	-0.023346	0.011749	0.063935	
0.237583	0.020905	0.004730	0.005035	
0.158542	-0.007782	0.007172	-0.034333	
-0.029755	-0.021820	0.010834	-0.068208	
-0.175326	0.048676	0.020905	-0.066682	
-0.252537	0.056611	0.009003	-0.087434	
-0.213473	0.030975	0.004730	-0.091096	
-0.297704	-0.010834	-0.011139	-0.105440	
-0.431983	-0.035554	0.002899	-0.105440	
-0.320897	-0.064546	0.023956	-0.123446	
-0.027924	-0.009918	0.042268	-0.178988	
0.154573	-0.014191	0.024261	-0.210727	
0.163424	0.037995	0.013275	-0.267490	
0.091096	0.114595	0.002594	-0.196689	
0.070954	0.082856	-0.003815	0.161899	
0.066072	0.037385	0.002899	0.159457	
0.064546	0.023346	-0.005646	0.104219	
0.069428	0.028839	-0.011749	0.110018	
0.083161	0.049287	-0.004425	0.045930	
0.078889	0.051423	0.013275	0.016327	
0.064240	0.031892	0.015411	-0.042573	
0.072480	0.028839	0.022125	-0.106966	
0.170444	0.004730	0.018158	-0.126497	
0.188449	-0.000763	0.025482	-0.114901	
0.054170	-0.016022	0.038606	-0.106050	
-0.017853	-0.004425	0.035554	-0.146639	
0.059968	0.061189	0.022125	0.137178	
0.094149	0.077058	0.024261	0.328526	
0.004730	-0.004120	-0.003204	0.024567	
-0.072480	-0.022125	-0.017242	0.008087	
-0.223850	-0.062104	-0.015411	-0.000153	
-0.294042	-0.152437	-0.011749	-0.013275	
-0.113070	-0.176242	-0.001373	0.063935	
0.048066	-0.106661	0.003204	0.015106	
0.007782	-0.026398	-0.001068	-0.066072	
-0.091401	0.147554	-0.001678	-0.135653	
-0.176547	0.178073	-0.000153	-0.068818	
-0.221714	-0.031281	0.004425	0.120394	
-0.186007	-0.141756	0.009308	0.012970	
-0.078584	-0.182651	0.004120	-0.265965	
0.032197	-0.185397	0.014496	-0.425574	
0.088349	-0.144808	0.014191	0.122225	
0.094759	-0.108797	0.025177	0.416419	
0.108797	-0.017853	0.032197	0.245518	
0.125582	0.116732	0.001984	0.094149	
0.088960	0.098726	-0.014191	0.018158	
0.080415	0.077668	0.006256	0.143587	
0.095369	0.062715	0.011139	0.104219	
0.058442	0.050813	0.010834	0.028839	
0.027008	0.042878	0.006256	-0.007172	
0.014191	0.030975	0.004120	-0.025787	
-0.073701	0.050202	-0.000153	-0.046540	
-0.179294	0.093537	0.005035	-0.087434	
-0.097200	0.108187	0.016937	-0.131990	
0.003204	0.113070	0.027924	-0.169223	
0.071259	0.152437	0.026093	-0.265659	
0.019073	0.142977	0.013275	-0.175937	
-0.045930	0.098421	0.019379	0.126802	
-0.002899	0.002289	0.006866	-0.052949	
0.058137	-0.041047	0.024872	-0.117342	
0.045930	-0.174106	0.004730	-0.131685	
0.068208	-0.180820	-0.003204	-0.094759	
0.108492	-0.077668	-0.005341	0.034638	
0.065156	0.008698	0.018768	-0.093232	
-0.006256	0.028229	0.017853	-0.066682	
-0.019073	0.008087	0.014191	0.489052	
-0.057832	-0.002899	0.007172	0.293736	
-0.062104	0.000458	0.010834	0.182040	
-0.071870	0.044099	0.000763	0.030975	
-0.077973	0.058137	-0.011139	-0.086518	
-0.061189	0.021210	-0.021820	-0.206759	
-0.032502	-0.026398	-0.028534	-0.646524	
0.006256	-0.051423	-0.002289	-0.543069	
0.004730	-0.041047	0.024261	0.048676	
0.006256	-0.035859	0.040437	0.357519	
0.082856	-0.039826	0.027313	0.552835	
0.094759	-0.025787	-0.001373	0.547952	
-0.007477	-0.009918	-0.045625	0.339818	
-0.039826	-0.009308	-0.039216	0.229038	
-0.029144	-0.003815	-0.040742	0.150911	
-0.028229	0.030975	-0.017548	0.068208	
-0.057221	0.025177	-0.002289	-0.002899	
-0.061189	0.051118	0.005951	-0.048371	
-0.066072	0.065156	0.016327	-0.061799	
-0.029449	0.036164	0.028839	-0.081025	
-0.000153	0.015106	0.034944	-0.088655	
-0.019379	0.012054	0.021210	-0.078889	
-0.077668	0.013885	0.022125	-0.119478	
-0.022125	0.012054	0.017242	-0.211642	
0.101473	0.012360	0.024261	-0.178683	
0.071870	-0.001678	0.033113	-0.086823	
0.004730	-0.049897	0.030060	-0.174716	
-0.029144	-0.098726	0.017853	-0.308080	
-0.022430	-0.075532	0.012665	-0.108797	
-0.012970	-0.001373	0.011139	0.062104	
0.020599	0.015106	0.022736	-0.009308	
0.021210	-0.007782	0.012970	-0.163119	
0.052949	0.001678	0.026398	0.074006	
0.027008	0.008087	0.007782	0.139009	
0.005035	0.030365	-0.009003	0.016937	
-0.025787	0.032197	0.001068	0.008087	
-0.025787	0.043183	-0.003204	0.016022	
-0.036469	0.066987	-0.005341	-0.005646	
-0.009003	0.056916	-0.004425	-0.012970	
0.077973	0.031281	0.022736	-0.011444	
0.046540	-0.009918	0.036469	-0.021515	
-0.051423	-0.064240	0.033113	-0.019989	
-0.009003	-0.108797	0.053254	-0.014496	
0.048066	-0.035249	0.057527	-0.032502	
0.020294	0.023041	0.048982	-0.115206	
-0.042878	-0.044404	0.000153	-0.251621	
-0.097506	-0.112154	-0.066682	-0.276340	
-0.056306	-0.074616	-0.081635	-0.224155	
-0.030975	-0.006256	-0.090486	-0.054475	
-0.019379	0.036775	-0.018158	0.110018	
-0.041352	0.067597	0.078584	-0.073396	
-0.071870	0.150606	0.081635	-0.232395	
-0.060578	0.172580	0.029144	0.154573	
-0.062104	0.090180	0.022125	0.724346	
-0.055085	-0.011749	0.014496	0.399939	
-0.034944	-0.052033	0.003204	0.167392	
0.040437	-0.079804	-0.006866	0.177157	
0.154879	-0.079194	-0.002289	0.148775	
0.219273	-0.034333	0.009918	0.187228	
0.220798	0.036775	-0.002899	0.032502	
0.144503	0.104219	-0.003815	-0.039521	
0.049287	0.145418	-0.009613	-0.088349	
0.018158	0.141756	0.008392	-0.122225	
-0.092317	0.113680	0.016937	0.012360	
-0.192416	0.064851	0.013275	0.057832	
-0.299535	0.002899	0.009003	-0.054475	
-0.399023	-0.105745	0.010834	-0.099642	
-0.334935	-0.186313	0.000458	-0.069428	
-0.041963	-0.174106	-0.011749	-0.078889	
0.090791	-0.127413	-0.010223	-0.066072	
0.162814	-0.110933	-0.001678	-0.091401	
0.133211	-0.121614	0.006866	-0.042878	
0.060884	-0.057221	0.005951	-0.005341	
0.043794	-0.041963	0.008087	-0.066682	
0.052644	-0.027924	0.002899	-0.065156	
0.086823	0.035249	0.016327	-0.034638	
0.107271	0.069428	0.012054	-0.047761	
0.066987	0.105440	0.012665	-0.037995	
0.042878	0.140535	0.015411	-0.023346	
0.037995	0.134432	0.011139	-0.028534	
0.027924	0.116732	0.005341	-0.029449	
-0.049592	0.084992	0.009918	-0.024261	
-0.169528	0.018768	0.001984	-0.026093	
-0.133821	-0.025787	-0.023041	-0.011139	
-0.065156	-0.071259	-0.036164	-0.015106	
0.019684	-0.036469	-0.001678	-0.009308	
0.099947	-0.020294	0.036775	-0.009308	
0.053864	-0.044099	0.047151	0.000763	
-0.035859	-0.061189	0.047151	0.001068	
-0.054475	-0.042573	0.039216	-0.006866	
0.047151	0.013275	0.034333	-0.004425	
0.114901	0.030060	0.019989	-0.005341	
0.056306	0.014496	0.009308	-0.001373	
-0.059663	0.036164	-0.001068	0.008698	
-0.049287	0.024567	-0.010223	0.000153	
0.026703	-0.023956	-0.022430	-0.092317	
0.089875	-0.014191	-0.005951	-0.243076	
0.110018	-0.005341	0.006866	-0.341649	
0.043794	0.042878	0.024872	-0.319371	
-0.008392	0.030975	0.005951	-0.058137	
-0.047761	0.006561	-0.001068	0.105745	
-0.078584	0.038911	0.012665	-0.061799	
-0.099642	0.014801	0.000458	0.104830	
-0.086213	-0.014191	-0.005341	0.144503	
-0.010834	0.001678	0.012665	0.174106	
0.042268	0.000153	0.014496	0.166171	
0.030060	-0.005035	-0.018158	0.411841	
-0.004425	0.000763	-0.028229	0.254368	
-0.001984	0.042268	-0.006866	0.341039	
0.017242	0.020599	0.027313	0.371557	
-0.002289	-0.011444	0.022125	0.212558	
-0.013580	-0.012360	0.013275	0.049897	
-0.045625	-0.033113	-0.002289	-0.029449	
-0.033418	-0.008087	0.009308	0.005341	
0.004730	0.044404	0.012054	0.015411	
0.006866	0.029755	0.007782	-0.107271	
0.006256	0.008698	0.004730	-0.112154	
0.007782	0.026398	0.014801	-0.111238	
-0.015411	0.016937	0.002899	-0.142672	
0.019073	0.026398	0.006866	-0.144197	
0.020599	0.016632	-0.000153	-0.146944	
0.029144	0.011139	0.012665	-0.145723	
0.013275	-0.001373	0.032197	-0.127108	
-0.043183	-0.022125	0.014496	-0.029755	
-0.085908	-0.046235	0.011139	-0.050813	
-0.088349	-0.052644	0.003815	-0.081025	
-0.011444	-0.015411	0.012970	-0.045625	
0.094759	0.027008	0.008392	-0.060884	
0.069428	0.018768	0.019989	-0.095064	
-0.049897	-0.021515	0.018463	-0.123140	
-0.114290	-0.028229	0.011139	-0.137178	
-0.081330	0.038911	-0.000763	-0.140535	
-0.045930	0.100557	0.006866	0.077363	
-0.068208	0.096590	0.008087	0.018768	
-0.014191	0.028839	0.034638	-0.007477	
-0.019684	-0.012054	0.045014	0.010834	
0.017853	-0.048066	0.046540	0.059968	
0.037080	-0.134127	0.025482	0.026093	
0.018463	-0.100252	0.014801	-0.022125	
-0.034333	-0.077363	0.014496	-0.016022	
-0.127108	-0.061189	0.001984	0.128023	
-0.095980	-0.004425	0.008392	0.144808	
-0.090180	0.026398	0.001068	0.000458	
-0.134432	0.059358	0.000153	-0.005951	
0.060884	0.041963	-0.010223	-0.015717	
0.481117	0.066072	-0.005035	0.026093	
0.514076	0.114290	-0.003204	0.011139	
0.172885	0.052033	-0.009918	-0.011749	
-0.099642	-0.081635	-0.023346	-0.068208	
-0.129854	-0.116426	-0.005646	-0.119783	
-0.082551	-0.086213	-0.004120	-0.164645	
-0.081025	-0.045320	0.006866	-0.111849	
-0.191806	-0.008392	0.009003	0.128939	
-0.301976	0.034028	0.011749	0.296483	
-0.221409	0.012970	-0.001678	0.096895	
-0.038911	0.019073	0.004120	0.001678	
0.017242	0.048982	0.014191	0.017548	
0.051118	0.045320	0.011139	0.003815	
0.134737	0.022125	0.014191	0.012360	
0.130770	0.005035	-0.019379	-0.004425	
0.109407	-0.015717	-0.004425	-0.011749	
0.104525	0.001678	0.028839	-0.020599	
0.095064	0.040132	0.010529	-0.007172	
0.045014	0.026093	-0.017548	-0.026398	
-0.005035	0.028229	0.024872	-0.054475	
0.004120	0.031892	0.088044	-0.162204	
-0.034944	0.068513	0.074616	-0.362097	
-0.083772	0.079499	-0.033418	-0.335546	
-0.072175	0.019379	-0.136568	-0.066072	
-0.042878	-0.026398	-0.129549	0.133211	
-0.075532	-0.040437	0.065461	0.235752	
-0.034028	-0.039521	0.207370	0.204013	
0.058137	-0.004120	0.285192	0.177463	
0.021210	-0.008087	0.166781	0.247349	
0.009918	-0.051728	-0.027618	0.169528	
-0.005646	-0.026398	-0.128939	0.057527	
0.039826	0.000153	-0.154879	0.034638	
0.066072	-0.017853	-0.092011	-0.000153	
0.013275	-0.020905	-0.016022	-0.044404	
-0.083467	0.042268	0.009003	-0.111544	
-0.099031	0.055390	-0.012970	-0.198825	
-0.019684	0.022430	-0.041352	-0.046845	
0.025787	0.023956	-0.086518	0.132296	
0.019073	0.002594	0.091706	-0.083772	
-0.003510	-0.034944	0.100252	-0.189670	
-0.022125	-0.011444	0.026398	-0.149996	
-0.015106	0.007172	0.013275	-0.001373	
-0.018158	0.002594	-0.011749	0.125887	
-0.025787	0.004120	-0.003510	-0.069428	
-0.018158	0.006866	0.033418	-0.175937	
-0.035554	0.008698	0.044404	-0.078584	
-0.054170	0.003204	0.040132	0.106050	
0.070344	-0.009613	0.030670	0.326390	
0.167392	-0.014801	0.009918	0.181125	
0.098421	0.002594	-0.011139	-0.160068	
0.019989	0.002594	-0.014496	-0.124971	
-0.004120	0.001068	-0.013275	0.046845	
-0.004425	0.009308	-0.011139	0.195163	
-0.012360	0.015106	-0.005035	0.106966	
-0.033418	0.006256	-0.009613	-0.040132	
-0.059358	0.011139	-0.009003	0.025177	
-0.059663	-0.002899	-0.008392	0.009308	
-0.050508	0.013275	-0.000153	-0.176852	
-0.069428	0.040437	0.002899	-0.172885	
0.030365	0.075227	0.008392	-0.286412	
0.044099	0.048676	0.008698	-0.359045	
-0.186618	0.028534	0.011139	-0.237278	
-0.142061	-0.023956	0.017853	-0.009613	
-0.033723	-0.048066	0.025177	0.168612	
-0.024261	0.014191	0.040132	0.354467	
-0.039521	0.054475	0.020599	0.242771	
-0.069734	0.034028	-0.000763	0.227818	
-0.064240	-0.094454	-0.021820	0.303807	
0.037080	-0.194858	-0.015411	0.085298	
0.150301	-0.176852	-0.009003	0.084687	
0.172275	-0.039216	-0.000763	0.075227	
0.123140	0.016022	-0.001678	0.010834	
0.046235	0.021820	0.006256	-0.021515	
-0.009308	0.031892	0.001984	-0.044099	
-0.023956	0.046845	0.009918	-0.073396	
-0.034028	0.024567	0.019379	-0.088349	
-0.037995	0.027924	0.021515	-0.102083	
-0.038911	0.014801	0.024872	-0.127718	
0.012360	0.036775	0.017242	-0.184482	
0.096590	0.079194	0.014191	-0.213778	
0.065766	0.048066	0.001068	-0.178683	
0.003815	0.006256	0.011139	0.055696	
-0.084992	-0.013275	0.012665	0.068208	
-0.131685	-0.001984	0.026093	0.037690	
-0.027618	0.008087	0.005341	0.016632	
0.085908	0.105135	0.007782	0.012360	
0.117037	0.115206	0.002594	-0.026398	
0.053864	0.036775	0.007172	-0.031587	
-0.077973	0.010834	0.010529	-0.025177	
-0.043794	-0.080110	0.014191	-0.017853	
0.042268	-0.099337	0.009003	-0.071259	
0.005646	-0.060273	0.009003	-0.120089	
0.018158	-0.045930	0.012665	-0.131990	
0.008087	-0.008087	0.020599	-0.095064	
-0.037080	0.025787	0.016022	-0.024567	
-0.042268	0.007172	-0.003204	-0.054780	
-0.053559	0.003204	0.004730	-0.129549	
-0.059663	-0.008392	0.012054	-0.075532	
-0.006866	0.000458	0.020599	0.126192	
-0.012360	0.041047	0.006866	0.380713	
-0.031281	0.081025	0.009918	0.244297	
-0.067597	0.049897	0.004120	0.041657	
-0.064240	0.010834	0.007782	0.051728	
-0.029449	0.002289	-0.004425	0.025177	
-0.003510	-0.009308	-0.011749	0.010223	
0.012360	-0.033113	-0.005646	-0.011749	
0.036775	-0.037995	0.006256	-0.009003	
0.036469	-0.052339	0.016937	-0.009918	
0.052033	-0.015717	0.029144	-0.009308	
0.027008	0.006561	0.006866	-0.028534	
0.005646	0.017853	0.002594	-0.027618	
0.013275	0.000153	0.007782	-0.027924	
0.094149	0.021820	0.018158	-0.022736	
0.059968	0.036775	0.019989	-0.017242	
-0.029755	0.009003	0.012665	-0.021515	
-0.060273	-0.005341	0.018158	-0.026398	
-0.071565	-0.032502	0.009918	-0.065156	
-0.041047	-0.059052	0.005951	-0.075532	
-0.059663	-0.066682	0.001678	-0.112154	
-0.145723	-0.008392	0.009918	-0.214694	
-0.175937	0.019989	0.018768	-0.321507	
-0.099947	0.032197	0.026398	-0.294652	
0.024872	0.045320	0.017242	0.029449	
0.239414	0.068513	0.005341	0.203708	
0.323339	0.044709	0.005341	0.099947	
0.210727	0.030365	0.012054	0.183261	
0.080110	0.038301	0.014496	0.389868	
-0.071565	0.064851	0.005951	0.296483	
-0.135958	0.085298	-0.003815	0.224461	
0.068208	0.023346	-0.021820	0.059663	
0.173190	-0.015411	-0.016022	-0.007477	
0.037690	-0.053864	-0.001678	-0.079194	
-0.098116	-0.061189	0.010834	-0.072480	
-0.063630	-0.076753	0.012665	-0.131075	
-0.036164	-0.095675	0.009308	-0.483864	
-0.137789	-0.048676	0.000458	0.000763	
-0.245823	0.016022	-0.009308	0.274509	
-0.278477	-0.009918	-0.021210	0.024872	
-0.145723	-0.022125	0.008392	0.191806	
-0.025482	-0.006866	0.065766	0.099947	
-0.021820	-0.023651	0.061799	-0.043489	
0.002289	0.005951	0.014191	-0.019073	
0.045320	0.054170	0.015411	0.029449	
0.024872	0.005951	0.018158	-0.045014	
0.025787	-0.005951	0.002899	-0.121920	
0.036469	0.005035	-0.018158	0.046540	
0.031892	0.034944	-0.042268	0.126802	
0.040742	0.042878	-0.041963	0.002594	
0.094454	0.036775	-0.034638	-0.001984	
0.143587	0.017242	-0.001373	-0.056306	
0.065156	-0.006866	0.037690	-0.077668	
0.011749	-0.025482	0.054475	-0.070954	
-0.025177	-0.023041	0.008392	-0.096895	
-0.033723	0.053254	-0.017548	-0.076753	
-0.045625	0.064240	-0.004120	0.002289	
-0.065461	0.052033	0.027313	-0.002899	
-0.092317	0.037385	0.037080	-0.021515	
-0.079804	0.018158	0.029144	-0.074006	
-0.041047	-0.021210	0.021210	-0.097506	
0.013275	-0.051118	0.024261	-0.117952	
0.072175	-0.089265	0.019989	-0.098726	
0.068818	-0.086518	0.026398	-0.113985	
0.057832	-0.024261	0.026093	-0.154268	
0.015106	0.006256	0.015411	-0.026398	
0.015106	-0.001068	0.021210	-0.214084	
0.020905	0.010834	-0.001678	-0.387121	
0.012054	0.016632	-0.001373	-0.003510	
0.002594	0.021210	0.017853	0.514687	
-0.006256	0.022125	0.036775	0.431373	
-0.043794	0.013885	0.030365	-0.002289	
-0.045320	0.016632	-0.033113	-0.061799	
-0.050508	0.013275	-0.025787	0.021515	
0.006561	0.018463	0.011139	-0.111849	
0.108492	0.005951	0.022736	0.029449	
0.084382	0.011749	0.009918	-0.005035	
0.044099	0.002594	-0.045930	-0.599527	
-0.025177	0.015717	-0.055390	-0.372473	
-0.117342	0.045320	-0.036775	0.222935	
-0.085298	0.040742	0.061494	0.677043	
0.022430	-0.001373	0.127718	0.456397	
0.057221	-0.039521	0.059663	0.406042	
0.031892	-0.038301	-0.011444	0.321507	
-0.026093	-0.038606	-0.015717	0.305638	
-0.063325	-0.029144	-0.006866	0.182040	
-0.062104	0.009918	-0.004425	0.039826	
-0.012054	0.008698	0.007782	0.005951	
0.038301	0.004120	0.002899	-0.054780	
0.037080	0.039216	0.009003	-0.082551	
0.004120	0.036469	-0.007477	-0.121920	
0.003204	0.040437	-0.003815	-0.119783	
0.024261	-0.009003	-0.014496	-0.145418	
0.043183	-0.008392	-0.007172	-0.149385	
0.000458	0.000763	-0.002899	-0.176547	
-0.055696	0.012970	0.001984	-0.176242	
-0.016937	0.001984	0.012360	-0.156711	
0.100557	-0.023651	0.015411	-0.109407	
0.102083	-0.035859	0.021515	0.001068	
0.016327	-0.037080	0.015106	-0.083772	
-0.079804	-0.005646	0.019379	-0.121309	
-0.137484	0.000458	0.009003	-0.163119	
-0.087739	0.028839	0.009918	-0.194858	
-0.039216	0.030975	0.006256	-0.147860	
-0.079804	0.014801	0.014191	-0.101168	
-0.113985	-0.005035	-0.005646	0.068208	
-0.047456	-0.009308	-0.003204	0.211947	
-0.029755	-0.038301	0.002289	0.071259	
-0.017548	-0.029144	0.017242	0.056001	
-0.010223	0.058137	0.008698	0.012970	
-0.027924	0.082551	0.007172	0.020905	
-0.019989	0.074616	0.000763	0.010834	
0.074311	0.108797	-0.008392	-0.001373	
0.096285	0.066377	0.005341	-0.005035	
0.138399	-0.019989	0.001678	-0.007782	
0.118258	-0.047761	0.007782	-0.007477	
-0.020294	-0.080110	0.005341	-0.016022	
-0.126497	-0.072175	0.015411	-0.019684	
-0.088655	-0.027618	0.021515	-0.035859	
-0.031892	-0.013580	0.022736	-0.115511	
-0.016327	0.004425	0.007172	-0.170138	
0.056916	0.005951	0.004730	-0.056306	
-0.070039	-0.024261	0.004730	-0.117647	
-0.115511	0.004425	0.015411	-0.225681	
0.005035	0.027008	0.015106	-0.111544	
0.076753	0.028839	0.012970	0.190585	
0.097506	0.020294	0.011139	0.456092	
-0.004120	0.062104	0.009003	0.293736	
-0.129549	0.016632	-0.000153	0.077058	
-0.111238	-0.063325	0.005035	0.088655	
0.019989	-0.069123	-0.000153	0.048982	
0.066682	-0.030060	-0.004120	-0.083772	
0.025177	0.007782	-0.002899	-0.022430	
0.013275	0.022430	0.004120	-0.062104	
0.140841	0.030060	0.004730	-0.105745	
0.291295	0.031281	0.015106	0.155794	
0.245823	0.100252	0.022125	0.248875	
0.138704	0.092317	0.013885	0.045930	
0.002594	0.026703	0.009003	-0.029449	
-0.085298	-0.067597	0.000153	-0.099947	
-0.139925	-0.081635	0.019073	-0.098726	
-0.244297	-0.079804	0.031281	-0.079194	
-0.256199	-0.113985	0.039521	0.018463	
-0.135958	-0.089875	0.034333	-0.012054	
-0.099031	-0.021515	0.023346	-0.110628	
-0.091401	0.032502	0.010529	0.037385	
-0.039826	0.084992	-0.009003	-0.046845	
-0.027618	0.108187	-0.012970	-0.105440	
-0.005341	0.024872	-0.013275	-0.059358	
0.062715	0.008392	-0.009003	-0.032807	
0.092927	0.002899	-0.005646	-0.053864	
0.057832	-0.033113	0.004120	-0.040132	
0.048982	-0.011139	0.007782	-0.081635	
0.062104	0.007782	0.008087	-0.073396	
0.041352	-0.021515	-0.005341	-0.189364	
0.046235	0.021820	0.004120	-0.274509	
0.018768	0.048371	0.010529	-0.200656	
0.016327	0.039216	0.024567	-0.111849	
0.004425	0.019073	0.026093	0.168918	
-0.000153	0.007172	0.020599	0.626078	
-0.007477	-0.006256	0.000458	0.294347	
-0.009003	-0.013580	0.000763	0.091706	
-0.017853	-0.011139	0.015411	-0.031281	
-0.018463	0.009308	0.026703	-0.199740	
-0.008087	0.017853	0.017242	-0.217441	
0.026398	0.030670	0.020294	0.069123	
0.073091	0.024567	0.024261	0.049897	
0.136568	0.011749	0.010834	0.109713	
0.204623	0.007172	0.007782	0.163424	
0.071259	-0.007782	0.004120	0.104525	
-0.007477	0.009003	0.000153	0.059358	
-0.049287	0.060884	0.001068	0.045625	
-0.084077	0.052033	0.016327	-0.121004	
-0.178378	0.083467	0.010834	-0.128023	
-0.252232	0.051423	0.018463	0.157016	
-0.248569	-0.024261	0.016937	0.087739	
-0.220493	-0.066682	0.013885	-0.031892	
-0.208896	-0.069123	0.019379	0.272068	
-0.117342	-0.107576	0.019989	0.210422	
-0.024261	-0.128023	0.007172	-0.044709	
0.038301	-0.038606	-0.000763	-0.119173	
0.072480	-0.034028	-0.010834	-0.144808	
0.089875	-0.037385	-0.005951	-0.063325	
0.110933	0.020599	0.004120	-0.043794	
0.130770	0.036775	-0.005646	-0.091096	
0.099337	0.039826	-0.012054	-0.072480	
0.104830	0.032197	-0.011139	0.002289	
0.105440	0.028839	0.010529	0.009308	
0.082856	0.024261	0.009918	0.011444	
0.157321	0.034028	0.013885	-0.047151	
0.273289	0.037385	0.014191	-0.067903	
0.144503	0.029144	0.008392	-0.049592	
-0.029755	0.009918	0.001984	-0.062409	
-0.131990	0.023041	0.015411	-0.056611	
-0.189364	0.005035	0.019989	-0.062104	
-0.197604	0.009003	0.023346	-0.059358	
-0.226597	0.035249	0.024872	-0.048066	
-0.196689	0.030975	0.019073	-0.029755	
-0.051423	0.037385	0.020294	-0.029755	
-0.001373	0.000458	0.005951	-0.031892	
-0.020294	-0.044099	-0.006866	-0.025177	
-0.088044	0.000458	-0.009003	-0.033723	
-0.089570	0.022430	0.002899	-0.027924	
-0.063630	-0.039826	0.018463	-0.019073	
0.017242	-0.059663	0.019989	-0.014191	
0.086518	-0.019684	-0.006866	-0.030060	
0.132906	0.004120	-0.009613	-0.034944	
0.168918	0.052644	-0.012054	-0.040742	
0.135042	0.082246	0.001984	-0.075532	
0.032502	-0.030060	-0.007477	-0.040437	
-0.059663	-0.103914	0.013275	-0.002289	
-0.105745	-0.091401	0.016937	-0.214084	
0.048066	-0.059968	-0.003510	-0.095980	
0.177463	-0.129549	-0.001068	0.240635	
0.160983	-0.076447	0.000458	0.166171	
0.268711	-0.029449	-0.000153	0.132296	
0.176547	-0.026398	-0.000153	-0.016022	
-0.073091	0.029144	0.009003	-0.117647	
-0.207675	0.040437	0.008087	-0.196689	
-0.257420	0.131380	0.011139	-0.422217	
-0.155794	0.131380	0.010529	-0.099337	
-0.078584	0.066072	0.021515	0.427405	
-0.164035	0.004425	0.027008	0.106356	
-0.239719	0.002594	0.030060	0.165866	
-0.200656	-0.016327	0.010529	0.417640	
-0.004425	0.031281	0.007782	0.347754	
0.231174	0.059052	0.002594	0.182040	
0.256809	0.037995	0.005341	0.068208	
0.128633	0.059052	0.012054	-0.053254	
-0.003815	-0.009308	0.012665	-0.061189	
-0.105440	-0.063935	0.002899	-0.059358	
-0.145113	-0.050202	0.008087	-0.029755	
-0.148775	0.015106	0.010529	0.031587	
-0.137178	0.064851	0.004425	-0.034333	
-0.104219	-0.001068	0.004730	-0.037385	
-0.075227	-0.027618	0.014496	-0.029449	
-0.008087	0.028839	0.024261	-0.095980	
0.022125	0.082551	0.022125	-0.135958	
0.052339	0.081330	0.019073	-0.217746	
0.077058	0.025787	0.011139	-0.154879	
0.098116	0.000153	0.011139	-0.194247	
0.160983	-0.071259	0.001068	-0.157931	
0.192721	-0.088655	0.001068	0.032807	
0.076753	-0.057527	0.003204	0.061494	
0.003815	-0.004120	0.005035	0.218967	
-0.037690	0.011749	-0.011444	-0.011139	
-0.065156	-0.007477	-0.016022	0.006866	
-0.106356	-0.031587	-0.010223	0.029755	
-0.100557	-0.028229	0.008698	-0.009003	
-0.043183	-0.023651	0.028839	-0.169833	
0.009613	-0.005951	0.030670	-0.232395	
0.128633	0.022736	0.019073	-0.102999	
0.148470	0.052339	-0.003815	0.034333	
0.054475	0.095064	-0.003815	0.121920	
-0.019989	0.062104	0.001068	0.109713	
-0.035859	0.023956	-0.002289	0.135042	
-0.009613	-0.010834	-0.005951	0.230564	
-0.002289	-0.031587	0.016327	-0.072480	
-0.017242	-0.049592	0.016632	-0.169223	
0.026093	-0.021820	0.023041	-0.097200	
0.031281	-0.038301	0.013275	-0.136568	
0.057221	-0.034028	0.016937	-0.121614	
0.052949	0.004120	0.007782	-0.231480	
0.097506	0.015106	0.002289	-0.083467	
0.016022	0.008392	0.009308	-0.295262	
-0.012360	0.025177	0.019073	-0.544595	
-0.003510	0.036164	0.039216	0.418555	
-0.016327	0.045014	0.027313	0.964522	
-0.043183	0.072785	0.015411	0.664836	
-0.052949	0.094454	-0.023956	0.298314	
0.001068	0.102694	-0.043489	0.140535	
0.138399	0.009003	-0.043489	0.166781	
0.160068	-0.030060	-0.019989	0.114290	
-0.062104	-0.129549	0.003815	0.104219	
-0.251011	-0.189364	0.018463	-0.031587	
-0.322728	-0.146639	0.004120	-0.089570	
-0.221714	-0.051118	0.009003	-0.091401	
-0.188144	-0.054170	0.001984	-0.115816	
-0.125887	-0.020294	-0.004425	-0.135958	
-0.101168	0.009308	0.000153	-0.141146	
0.122835	0.009308	0.016327	-0.129244	
0.111544	0.010529	0.016022	-0.106050	
-0.052339	0.056001	0.008392	-0.123446	
0.087129	0.116732	0.016022	-0.207675	
0.164645	0.110933	0.025482	-0.362402	
0.137178	0.102694	0.047151	-0.330052	
0.032807	0.044099	0.061494	-0.198520	
-0.037690	0.010529	0.053254	-0.127108	
-0.046540	-0.006866	0.023041	-0.058137	
0.038911	0.022430	0.016632	0.063630	
0.012054	0.041047	0.008392	-0.077363	
-0.008087	0.068513	0.014191	0.153658	
-0.025482	0.054780	0.012665	0.226292	
-0.008087	0.004120	0.021210	-0.266880	
0.006866	-0.040132	0.013885	-0.293431	
0.004730	-0.048371	0.016022	-0.048371	
-0.034028	-0.063935	0.011749	-0.166476	
-0.027618	0.001678	0.017853	-0.409095	
0.025177	0.014191	0.017242	-0.058747	
0.027924	-0.001984	0.012665	0.816510	
-0.001068	0.019073	-0.011749	0.941329	
-0.004425	0.011139	-0.030060	0.485390	
0.060273	-0.009308	-0.025177	0.217746	
0.121920	-0.025177	-0.025482	0.098726	
0.034944	-0.005341	-0.013275	0.178378	
-0.005341	0.024567	-0.008392	-0.037385	
0.084687	0.028839	0.003204	0.095675	
0.092927	0.023956	0.008698	-0.001678	
0.112764	0.048066	0.022125	-0.037995	
0.028534	0.067597	0.006256	-0.072785	
-0.016937	0.023956	0.006256	-0.098726	
0.016632	-0.049897	0.009918	-0.108187	
-0.120699	-0.098421	0.011749	-0.123446	
-0.204623	-0.151217	0.004120	-0.168307	
-0.134127	-0.120394	0.004425	-0.151522	
-0.011749	-0.050202	0.000458	-0.148775	
0.012360	-0.049592	0.000153	-0.123751	
-0.049897	-0.029144	0.011139	-0.031892	
-0.139315	0.026703	0.019989	-0.091401	
-0.201266	0.152437	0.022430	-0.154573	
-0.131685	0.215304	0.020294	-0.113375	
0.014191	0.080110	0.030670	-0.096590	
0.111238	-0.007172	0.020294	-0.228733	
0.074616	-0.076753	0.009918	-0.241245	
0.087129	-0.146334	0.002594	-0.000763	
0.202182	-0.164340	0.008698	-0.038911	
0.084382	-0.141146	0.009003	0.081941	
0.004730	-0.080415	0.004120	0.118868	
-0.053864	0.015106	-0.004425	-0.012054	
-0.149385	0.070954	-0.000153	0.085603	
-0.168307	0.048066	0.003815	0.233921	
-0.139925	0.009003	0.008087	-0.060884	
-0.163730	-0.035249	0.005035	-0.099642	
-0.047151	-0.027313	0.009918	0.178073	
0.027313	0.064240	0.011139	0.193942	
-0.025177	0.120699	0.004730	0.066072	
-0.000763	0.145418	-0.001678	0.082246	
-0.007782	0.112459	-0.010223	0.124971	
-0.046540	0.105745	0.001678	0.020294	
0.012665	0.119783	0.005035	-0.067903	
0.069123	0.032502	0.011749	-0.103914	
0.072175	-0.059052	0.016327	-0.115206	
0.087129	-0.041047	0.027924	-0.083772	
0.028229	-0.051728	0.024261	-0.047761	
0.039216	-0.041963	0.018463	-0.001678	
0.034028	-0.019684	0.008392	-0.117037	
0.063325	-0.021820	0.010223	-0.162204	
0.149080	-0.012360	0.018768	-0.055085	
0.162509	0.010834	0.026703	-0.315099	
0.130159	-0.008087	0.010223	0.052644	
0.122835	-0.009003	-0.005341	0.321813	
0.212253	0.026703	-0.008392	-0.195468	
0.134737	0.041963	-0.010223	0.187533	
-0.085298	0.026398	-0.007172	0.214694	
-0.261692	0.008392	-0.002899	0.311131	
-0.353857	0.004425	0.008087	0.210422	
-0.149385	0.001678	0.004730	-0.016327	
-0.015106	-0.045930	0.008698	-0.109407	
-0.113375	-0.015106	0.004120	-0.166476	
-0.072175	0.037995	0.003204	-0.000763	
-0.039216	0.054780	0.005341	-0.066682	
-0.081330	0.070344	0.016327	0.040437	
-0.114595	0.026703	0.016022	0.092011	
-0.086213	-0.002899	0.012054	0.066072	
-0.091401	-0.051423	-0.004120	0.011444	
-0.043183	-0.059052	0.004730	-0.032197	
0.052339	-0.075837	0.010529	-0.129549	
0.100252	-0.036469	0.010834	-0.226902	
0.092622	-0.027008	0.000153	-0.217441	
0.137178	0.004425	0.000458	0.041352	
0.138704	0.000763	0.013275	0.126192	
0.097506	-0.030975	0.028839	-0.230259	
0.091096	0.047456	0.025482	-0.006256	
0.084077	0.083467	0.022736	0.359350	
0.091096	0.048066	0.015411	0.049287	
-0.000153	0.005951	0.001678	0.011444	
-0.082551	-0.036469	0.012970	-0.001678	
-0.085908	-0.060273	0.001678	-0.077363	
-0.063630	0.008698	0.006256	-0.194247	
-0.135958	0.016632	0.006866	-0.304418	
-0.154268	-0.051423	0.023041	-0.146334	
-0.146334	-0.062409	0.015411	-0.057221	
-0.099337	-0.014801	0.016327	-0.116732	
0.054170	0.017242	0.020294	0.126192	
0.099337	0.064851	0.011749	0.461280	
0.155489	0.072480	0.001068	0.171054	
0.110018	0.062409	-0.016022	0.107576	
-0.009613	0.034638	-0.020294	0.033723	
-0.087739	-0.039216	-0.017242	-0.134432	
-0.140535	-0.070649	-0.003204	-0.006256	
-0.107576	-0.055696	0.000458	0.131990	
-0.089265	-0.025482	0.004120	0.007172	
-0.074311	-0.025177	-0.003510	0.004425	
0.036469	-0.009613	-0.003204	-0.022125	
0.088349	-0.013580	0.001678	-0.053864	
0.058747	0.019379	0.018768	-0.054170	
0.057832	0.015106	0.016022	-0.056611	
0.145113	0.004730	0.021210	-0.060273	
0.207675	-0.022430	0.022736	-0.048676	
0.048066	0.043183	0.026398	-0.034028	
-0.004425	0.086518	0.014191	-0.042573	
0.012970	0.066682	0.001984	-0.048982	
0.006561	0.030670	-0.007477	-0.032807	
0.068513	0.023041	-0.040132	-0.038301	
0.121309	0.052949	-0.020599	-0.065156	
0.122835	0.072785	0.005341	-0.051728	
0.188449	0.069123	0.031281	-0.011749	
0.344702	0.022125	0.014496	0.026093	
0.346838	0.000458	-0.015717	0.063325	
0.045320	0.020294	-0.037995	-0.034944	
-0.326390	0.042573	-0.047761	-0.097811	
-0.585488	-0.010223	-0.016327	-0.095064	
-0.574807	0.009308	0.092011	-0.103914	
-0.307164	0.034944	0.121920	-0.137178	
-0.134737	0.059968	0.077668	-0.043489	
-0.226292	0.002899	0.046235	-0.041657	
-0.224155	-0.134737	0.040742	-0.207065	
-0.155184	-0.140230	0.026093	-0.302281	
-0.058442	-0.139009	0.001984	0.072480	
0.005035	-0.152437	0.005035	0.362707	
0.030975	-0.146944	0.008698	0.133211	
0.064546	-0.101778	0.011749	0.219578	
0.059968	-0.045625	0.002594	0.274509	
0.031892	-0.001678	0.001678	0.309606	
0.016022	0.006561	-0.010834	0.165256	
0.026703	0.027313	-0.011139	-0.019684	
0.066987	0.042878	-0.020294	-0.187228	
0.091401	0.059052	-0.015411	-0.423743	
0.070039	-0.007477	-0.023041	-0.209201	
0.137484	0.004120	-0.010223	0.263523	
0.142977	0.031281	0.000763	0.236973	
0.128328	0.074616	0.012665	0.165866	
0.125277	0.097506	0.016632	-0.115206	
0.099337	0.073091	0.014496	0.057832	
0.066682	0.054170	0.023041	0.106966	
0.074311	0.051118	0.034028	-0.166171	
0.091401	0.037995	0.005341	-0.058747	
0.066987	0.020599	-0.023041	0.124056	
0.022430	0.023956	-0.010223	0.121309	
-0.032502	0.023041	-0.009003	0.086823	
-0.056306	0.019989	-0.010223	-0.137178	
-0.078584	0.014191	-0.013885	-0.246128	
-0.082246	0.001984	-0.000153	-0.306554	
-0.072175	0.008698	0.013275	-0.228123	
-0.097811	0.014191	0.015411	-0.156405	
-0.095675	-0.006256	0.017853	-0.199130	
-0.051423	-0.003510	0.016632	-0.483253	
-0.019379	-0.003510	0.003204	0.180209	
-0.010223	-0.013885	0.019379	0.410926	
-0.004425	-0.019684	0.016327	0.123140	
-0.008392	-0.006256	-0.001068	0.139009	
-0.006256	0.003204	-0.014191	0.602884	
0.002289	0.007172	-0.012970	0.317235	
0.008087	0.004425	0.018463	0.105135	
0.031281	0.004120	0.036469	0.045930	
0.117952	0.009918	0.024567	0.000458	
0.094759	-0.003510	-0.004425	-0.092622	
0.014191	0.006561	0.004730	-0.083161	
-0.025482	0.021820	0.001678	-0.084992	
-0.033723	0.038911	-0.000763	-0.111544	
-0.028229	0.033113	-0.000153	-0.212558	
-0.051118	0.030670	0.007172	-0.374609	
-0.149996	0.001984	-0.001068	-0.371252	
-0.190890	-0.023346	0.023041	0.012360	
-0.076447	-0.048066	0.037080	-0.085298	
0.043183	-0.065766	0.058747	0.065156	
0.063020	-0.057832	0.060273	0.270847	
0.007172	0.044709	0.051423	0.331883	
-0.048371	0.064240	0.030060	0.335546	
0.043183	0.011749	0.021210	0.086213	
0.213473	-0.021515	0.001068	-0.055085	
0.121309	-0.041352	-0.012054	-0.085298	
0.012665	-0.069734	-0.001373	0.070344	
-0.007782	-0.084687	-0.009003	-0.019379	
0.042268	-0.039216	-0.003204	-0.123751	
-0.001068	-0.047456	-0.005341	-0.135958	
-0.088349	0.056306	-0.009003	-0.268711	
-0.104219	0.100863	-0.013580	-0.270237	
-0.077668	0.078279	-0.014191	-0.086518	
-0.044099	0.102999	-0.000763	-0.117647	
0.020905	0.093537	0.032807	0.325780	
0.020905	0.004120	0.027924	0.130159	
-0.099642	0.005035	0.012970	0.088349	
-0.069428	0.058442	0.006256	0.068208	
0.072480	0.016937	0.017242	-0.009613	
0.124361	-0.035249	0.013885	-0.028534	
0.080720	-0.068513	0.010223	-0.034333	
-0.002289	-0.056611	0.014191	-0.036775	
-0.055696	-0.059968	-0.003815	-0.070344	
-0.111849	-0.067597	0.004730	-0.108797	
-0.177463	-0.062104	0.008698	-0.117647	
-0.177463	-0.086518	0.014801	-0.152132	
-0.075837	-0.150606	-0.002289	-0.060578	
0.014496	-0.076753	-0.018158	0.012360	
0.008392	0.041047	-0.001373	0.020294	
0.005035	0.048676	0.034944	0.149385	
-0.011749	0.005035	0.026093	0.031587	
0.006256	0.016022	-0.003510	-0.093843	
0.048066	0.032502	0.000458	-0.012970	
0.078279	0.056306	0.018463	0.155794	
0.075227	0.081635	0.013275	0.008698	
0.074006	0.078279	-0.001068	-0.031587	
0.027008	0.068208	-0.012970	-0.019684	
0.004120	0.079499	-0.015411	0.087434	
0.018158	0.090180	-0.008087	0.077058	
0.036469	0.074311	0.010529	0.009308	
0.105440	0.035249	0.021210	-0.060578	
0.112764	-0.005035	0.023346	-0.097506	
0.131990	-0.032197	0.014191	-0.066072	
0.209506	-0.071259	0.012665	-0.015717	
0.112764	-0.081330	0.023956	-0.114290	
-0.024261	-0.108797	0.008698	-0.127718	
-0.169833	-0.089570	0.011749	-0.088349	
-0.238499	-0.043489	0.001068	-0.136263	
-0.176242	0.034638	0.007172	0.123140	
-0.174716	0.054780	0.019073	0.334020	
-0.095980	0.099337	0.026093	0.201571	
0.049287	0.144503	0.017242	0.121920	
0.149996	0.160678	0.004730	0.008392	
0.113985	0.108187	0.008087	0.051423	
0.070039	0.064851	0.021515	0.114290	
-0.044099	0.021210	0.014191	-0.019073	
-0.118258	-0.021210	0.002289	-0.099947	
-0.181735	-0.034944	0.008698	0.002899	
-0.207980	-0.112764	0.007782	-0.047761	
-0.164645	-0.153963	0.008392	-0.078584	
-0.053864	-0.150606	0.008087	-0.154268	
0.008392	-0.076142	0.012970	0.250706	
0.038301	0.017853	-0.000763	0.176242	
0.066072	0.049287	0.002289	-0.029449	
0.078889	0.065461	-0.004425	0.014496	
0.059358	0.031892	0.000153	-0.022430	
0.039216	-0.035859	0.001678	-0.040742	
0.019989	-0.062409	0.009003	-0.037385	
-0.029144	-0.052339	0.005951	-0.060273	
-0.051728	-0.039521	0.003204	-0.080110	
-0.048371	-0.033418	0.001984	-0.092317	
-0.008087	-0.006866	-0.007477	-0.083772	
0.036775	0.014191	-0.019684	-0.113680	
0.051728	0.057527	-0.044709	-0.109102	
0.060578	0.089570	-0.017548	0.055390	
0.052033	0.016937	0.063630	0.062409	
0.073396	0.009003	0.075837	-0.031281	
0.051728	0.008392	0.030365	-0.103609	
0.032807	0.017853	0.027924	-0.053254	
0.019684	0.008698	0.017242	0.010223	
0.028534	0.028229	0.028534	-0.030365	
0.066682	0.046540	0.022125	-0.263523	
0.013275	0.116732	-0.022430	-0.574197	
-0.004425	0.097200	-0.079804	-0.281224	
0.040742	0.041963	-0.033723	-0.043794	
0.016937	0.016327	0.032807	0.352636	
-0.019684	-0.008087	0.079499	0.648355	
-0.078584	-0.045320	0.095064	0.402990	
-0.146334	-0.055390	0.058747	0.232090	
-0.120089	-0.010834	0.003204	0.155184	
0.002289	-0.006256	-0.118258	-0.019989	
0.043794	-0.016327	-0.143587	-0.138094	
0.060884	-0.020294	-0.022430	-0.147860	
0.053864	-0.001984	0.060273	-0.160983	
0.018158	-0.028534	0.057527	0.038301	
-0.023041	-0.023651	0.080110	0.305333	
-0.034944	-0.024872	0.077058	0.046540	
-0.010223	-0.020905	-0.024567	-0.083161	
0.004730	-0.020905	-0.131685	-0.099031	
-0.018158	-0.023956	-0.012970	-0.215610	
-0.037385	-0.015717	0.075227	-0.086213	
-0.030060	0.002289	0.056611	-0.112764	
0.035249	0.014801	0.027924	-0.154268	
0.004120	0.023956	0.103304	0.253757	
-0.126192	0.024567	0.097506	0.236973	
-0.134127	0.020905	0.030060	-0.042573	
-0.061494	0.006561	0.020599	0.184482	
0.116426	0.016937	0.018768	0.197299	
0.168918	0.062409	0.002899	-0.073091	
0.052339	0.067597	-0.023041	-0.208896	
-0.031587	0.018158	-0.017548	-0.230869	
0.024872	-0.006866	-0.012054	0.058747	
0.155184	-0.007782	-0.002899	0.252842	
0.173495	0.026398	-0.001068	0.089570	
0.139620	0.066682	-0.009613	-0.038911	
0.118258	-0.028229	-0.017242	-0.061189	
0.261692	-0.105440	-0.009613	-0.033418	
0.283360	0.053254	-0.004425	-0.037690	
-0.023956	0.332494	0.005035	-0.056916	
-0.348974	0.269321	0.008087	-0.071565	
-0.496681	0.032502	0.002289	-0.063020	
-0.507362	-0.240940	0.002594	-0.058747	
-0.455176	-0.380407	0.003204	-0.084382	
-0.418250	-0.345007	-0.005341	-0.093232	
-0.305638	-0.214084	-0.008392	-0.086518	
-0.083161	-0.164645	0.006256	-0.071565	
0.081941	-0.084687	0.000153	0.040437	
0.116426	0.064240	-0.004120	0.022736	
0.055085	0.121920	-0.021820	-0.024567	
0.065156	0.131075	-0.010223	-0.050202	
0.037995	0.066682	0.008392	-0.254368	
0.060578	0.111544	0.037080	-0.139925	
0.080110	0.114595	0.038911	0.143587	
0.046845	0.177157	0.030060	0.029144	
0.059358	0.097200	-0.001068	-0.109102	
0.085908	-0.072480	-0.024261	-0.181125	
0.138094	-0.150606	-0.018463	-0.135347	
0.122835	-0.097811	0.000458	-0.097506	
0.136263	-0.033723	0.016632	-0.037690	
0.164645	-0.046540	0.027008	0.455787	
0.184176	-0.003510	0.041352	0.458228	
0.128633	0.013275	0.019989	0.089875	
0.098421	0.068208	0.006561	0.105745	
0.081025	0.095064	-0.000763	0.135042	
0.035859	0.109407	0.002899	0.114901	
-0.013885	0.078279	-0.002289	-0.012360	
-0.076447	0.063630	0.002594	-0.068818	
-0.103914	0.041047	0.005951	-0.064851	
-0.067903	0.016632	0.019073	-0.025177	
-0.074616	-0.029449	0.012970	-0.042573	
-0.052949	-0.041047	0.003204	-0.196994	
0.005951	-0.043794	-0.001373	-0.317540	
-0.004120	-0.012054	0.003815	-0.389563	
-0.006866	-0.012054	0.006866	-0.009308	
-0.042878	-0.017242	0.014496	0.511940	
-0.102694	-0.007172	0.031281	0.153658	
-0.110628	0.018158	0.050508	-0.345922	
-0.037690	0.042573	0.049592	-0.286412	
0.013275	0.037080	0.012970	0.013885	
0.047761	0.029144	-0.011139	0.123446	
0.022430	0.018158	-0.027008	0.371252	
-0.010834	0.008392	0.004425	0.244602	
-0.052033	-0.007172	0.016327	0.073091	
-0.000153	0.002289	0.011139	0.084687	
0.006866	-0.017548	-0.005035	0.029144	
0.013275	-0.030060	0.000458	-0.002899	
0.037690	-0.039826	0.000458	-0.009003	
0.083467	-0.017242	0.005035	0.031587	
0.080415	0.033113	0.007172	-0.013580	
0.053864	0.103609	0.007172	-0.019379	
0.038911	0.068208	0.009003	0.015106	
0.034944	0.010529	0.004730	-0.065156	
0.061799	0.007782	0.009918	-0.034333	
0.041352	0.000458	0.009003	-0.049592	
-0.102388	-0.037080	0.013885	-0.046845	
-0.165256	-0.072175	0.011139	-0.034333	
-0.095980	-0.027924	0.021210	-0.037385	
-0.068208	0.016327	0.007172	-0.049592	
-0.060273	0.048371	0.007172	-0.055696	
-0.108187	0.012054	-0.007172	-0.089570	
-0.118563	-0.040437	-0.007172	-0.091096	
-0.068208	-0.100557	0.000458	-0.085298	
-0.016327	-0.101778	0.011139	-0.052949	
-0.029755	-0.033723	0.022736	-0.020294	
-0.031892	-0.005035	0.022125	-0.114290	
-0.006866	-0.034028	0.017853	-0.231480	
0.034944	-0.037690	0.018463	-0.217441	
0.057832	-0.005951	0.014191	-0.335546	
0.101168	0.021820	0.012970	-0.197299	
0.144503	0.035859	0.027008	0.107882	
0.114290	0.053254	0.027008	0.399939	
0.025787	0.099642	0.015411	0.418250	
-0.057221	0.075227	0.002289	0.163730	
-0.046540	0.023956	0.004425	-0.003510	
0.135042	-0.007172	-0.009918	-0.132601	
0.073091	-0.016022	-0.005035	0.026093	
-0.074006	-0.011444	-0.009003	0.301366	
0.066987	0.048982	0.006256	0.281223	
0.056611	0.087739	0.016022	0.139620	
0.003204	0.108797	0.011139	0.129244	
-0.055390	0.040437	-0.022430	-0.005646	
-0.162204	-0.078279	-0.025482	-0.043489	
-0.200656	-0.168918	-0.013885	-0.113070	
-0.196383	-0.151827	0.005341	-0.173800	
-0.178683	-0.110933	0.011139	-0.245213	
-0.126497	-0.043489	0.018463	-0.197604	
-0.069428	0.079194	0.036164	-0.116732	
0.004425	0.075227	0.036469	0.009918	
0.121309	0.071259	0.028839	0.146639	
0.117952	0.053254	0.016632	0.200656	
0.115206	0.004120	0.005341	-0.027313	
0.058442	-0.029144	-0.001068	-0.221714	
0.055390	-0.025787	0.012665	-0.510414	
0.092927	-0.031281	-0.006866	-0.231785	
0.146029	-0.035249	-0.005951	0.141451	
0.108797	-0.017548	0.001068	0.128328	
0.067292	0.052644	0.015411	0.324254	
0.009613	0.097811	0.010529	0.315404	
-0.047151	0.177463	0.006866	0.189975	
-0.116426	0.105135	-0.001373	0.023346	
-0.151827	-0.008087	0.004120	0.090180	
-0.110323	-0.049287	0.001984	0.196383	
0.031281	-0.053254	0.002899	0.033723	
0.149080	-0.066682	-0.003510	-0.019379	
0.017853	-0.019989	0.001678	-0.013275	
-0.022430	-0.027008	0.014496	-0.039521	
-0.093537	-0.016022	0.010529	-0.082856	
-0.217746	0.022125	0.015411	-0.211032	
-0.190890	-0.029144	0.010223	-0.438392	
-0.027313	-0.040437	0.016327	-0.311742	
0.113070	-0.043794	0.014496	0.087434	
0.141146	-0.047456	0.011749	0.208896	
0.144503	0.001678	0.007782	0.158542	
0.039826	0.065461	-0.001678	0.025177	
-0.055390	0.091096	-0.009308	0.012665	
-0.043794	0.087739	-0.007477	0.014191	
0.060884	0.052033	-0.005341	0.005341	
0.257420	0.017853	-0.006866	-0.027313	
0.221714	0.046235	-0.002289	-0.112154	
0.066377	0.105745	0.010223	-0.190280	
-0.081025	0.097811	0.019073	-0.182956	
-0.163424	0.055390	0.020905	-0.042878	
-0.234837	-0.005035	0.025177	0.092011	
-0.276035	-0.100863	0.020599	-0.013580	
-0.239719	-0.167697	0.020599	-0.126192	
-0.155794	-0.193332	0.004730	-0.142061	
-0.012970	-0.146639	0.016022	-0.083772	
0.069123	-0.065156	0.028534	-0.129244	
0.077058	-0.008392	0.037385	-0.199740	
0.070954	-0.014801	0.024872	0.150301	
0.058747	0.016327	0.014191	0.324254	
0.041352	0.032197	0.007782	-0.231174	
0.041047	0.036164	0.016327	-0.656291	
0.043794	0.042878	0.016327	0.090180	
0.034028	0.034944	-0.021515	0.584573	
0.046235	0.020905	-0.013580	0.408790	
0.077058	0.031892	-0.000153	0.454261	
0.086518	0.024567	0.009003	0.308385	
0.023041	0.005951	0.006256	0.110018	
-0.021210	0.004120	0.015411	0.156404	
-0.034944	0.008698	0.006256	0.166781	
-0.022430	0.012360	0.007782	0.064851	
-0.053254	0.027924	-0.006866	-0.056611	
-0.082551	0.046235	0.004120	-0.038606	
-0.073091	0.005035	0.002594	-0.095980	
-0.011444	0.019073	0.010834	-0.151827	
-0.035554	0.032502	0.014496	-0.160983	
-0.029144	0.010529	0.016937	-0.173190	
-0.004120	-0.007477	0.012970	-0.162509	
0.009613	-0.010223	0.018768	-0.057832	
0.020294	-0.012970	0.025177	0.028839	
0.037995	-0.015717	0.024872	-0.067292	
0.027924	-0.015106	0.008087	-0.078889	
0.018768	0.001678	0.000153	-0.108797	
0.024261	0.025177	-0.002289	-0.044099	
0.049897	0.039826	-0.011444	-0.087739	
0.042268	0.032197	-0.006866	-0.162814	
0.016022	0.019073	-0.010834	-0.045930	
