NO_OF_SAMPLES	4800
TOT_NO_OF_CHAN	4
FREQUENCY	960.000000
NO_OF_CALC_CHAN	0
TIME_STAMP	2020-02-08, 11:16:07	226045.84438660
FIRST_SAMPLE	1
DESCRIPTION	--
DATA_INCLUDED	Analog
CHANNEL_NAMES	Vastus Lateralis	Vastus Medialis	Lateral Gastroc	Tibialis Anterior
CHANNEL_GAIN	1	1	1	1
FP_LOCATION
FP_CAL
FP_GAIN
Vastus Lateralis	Vastus Medialis	Lateral Gastroc	Tibialis Anterior	
-0.053254	0.048982	-0.110933	-0.000763	
-0.102694	-0.009003	-0.030365	0.008392	
-0.091706	-0.053254	0.005341	-0.017548	
-0.034944	-0.094454	-0.083772	-0.032807	
-0.017242	-0.129549	-0.142672	-0.010529	
0.013275	-0.061189	-0.197299	0.002289	
0.050202	0.005951	-0.235447	-0.005035	
0.042268	0.003815	-0.034638	0.004120	
0.049287	-0.006256	0.254673	0.011444	
0.119478	-0.008087	0.179904	-0.001373	
0.136568	0.012665	0.112459	0.001678	
0.085298	0.086518	0.314488	-0.004120	
0.010834	0.095064	0.338292	-0.015411	
-0.048066	0.066072	0.191806	-0.010529	
-0.043183	0.014496	0.134432	-0.022125	
-0.215915	-0.073701	0.109407	-0.020294	
-0.381323	-0.115816	0.195773	-0.005951	
-0.306249	-0.078584	0.034944	0.013885	
-0.159457	-0.008087	-0.033113	0.015106	
-0.140230	-0.015717	-0.160678	0.002289	
-0.053254	0.073396	-0.467078	-0.005035	
0.081025	0.126497	-0.694133	-0.007172	
0.185092	0.070954	-0.435035	-0.005951	
0.262608	-0.003815	0.404516	-0.012970	
0.135958	-0.036469	-0.145418	-0.007477	
-0.101778	-0.025177	-0.178073	-0.020599	
-0.164645	-0.018463	0.319066	-0.019684	
-0.217746	-0.028229	0.087434	-0.013275	
-0.116121	0.040437	0.225681	-0.006256	
0.120089	0.140841	0.511940	0.000458	
0.054170	0.106356	0.352026	-0.002289	
-0.097506	-0.000763	0.180209	-0.008087	
-0.081330	-0.158237	-0.015411	-0.023346	
0.018463	-0.241550	-0.284276	-0.009003	
-0.075227	-0.169833	-0.161593	-0.009308	
-0.041352	-0.047456	0.213473	-0.016632	
0.079194	0.059052	-0.253452	0.000763	
0.195163	0.129854	-0.150606	0.014191	
0.247349	0.143282	-0.033113	0.002899	
0.126802	0.109407	-0.026093	-0.001678	
-0.055390	0.016022	-0.063020	-0.027618	
-0.088655	-0.029144	-0.015411	-0.013885	
0.017853	0.010223	0.005035	-0.016327	
0.117037	0.045014	0.053864	-0.025787	
0.198825	-0.011444	-0.127413	-0.001373	
0.181430	0.045014	-0.222630	0.009918	
0.026398	0.120699	-0.186313	-0.002289	
-0.081025	0.035249	-0.022125	-0.000763	
-0.093537	-0.092011	0.297704	0.025177	
-0.070039	-0.116732	0.234837	-0.014191	
-0.020294	-0.132296	0.053254	-0.031892	
0.105440	-0.146029	-0.182040	0.000153	
0.154573	-0.065461	-0.002899	0.018463	
0.186923	-0.008392	0.057221	-0.004425	
0.170138	0.111238	0.300145	-0.001984	
-0.067903	0.220798	0.028229	0.015411	
-0.369116	0.272678	0.379797	0.007172	
-0.463416	0.227512	-0.005341	0.008087	
-0.055696	0.283360	-0.195773	0.008698	
0.016022	0.120394	-0.019684	-0.013580	
-0.196689	-0.135042	-0.017242	-0.034638	
-0.244297	-0.257420	-0.087129	-0.032502	
-0.138094	-0.401159	-0.188754	-0.035859	
0.044099	-0.446021	-0.243687	-0.039826	
0.052644	-0.381018	-0.180820	-0.013580	
0.023041	-0.178683	0.087129	0.004425	
-0.019989	-0.006866	0.348974	-0.008087	
-0.007782	0.100252	0.717631	0.000153	
0.004120	0.151522	0.257725	-0.004425	
0.024567	0.161593	0.021210	-0.014191	
0.000458	0.064851	-0.307469	-0.020599	
0.015717	0.071565	-0.720074	-0.003510	
0.014496	0.073396	-0.648355	0.025482	
-0.002289	0.092622	0.139315	0.032807	
0.006256	0.105135	0.595560	0.014191	
0.063020	0.115816	-0.056001	-0.001373	
0.170444	0.108187	0.081941	-0.011444	
0.242466	0.091096	0.083161	-0.006866	
0.255589	0.072175	0.123751	0.001678	
0.147249	0.095369	0.079499	-0.004425	
0.020599	0.143282	0.196994	0.005341	
-0.049897	0.092622	0.252537	-0.000763	
-0.057221	0.030060	-0.118868	-0.022736	
-0.141146	-0.061189	-0.011444	-0.021515	
-0.182651	-0.132906	-0.015411	-0.006256	
-0.177768	-0.186313	-0.073701	-0.015106	
-0.117647	-0.184482	-0.023956	-0.006866	
-0.070039	-0.117647	-0.006256	-0.010223	
0.023651	-0.056001	-0.016937	-0.016022	
0.074311	-0.016022	-0.035554	-0.013885	
0.065766	-0.047456	-0.054475	-0.008087	
0.023956	-0.043794	-0.055696	-0.008392	
0.021210	0.016937	-0.067597	-0.002899	
0.023956	0.064546	-0.068513	-0.004425	
0.060578	0.097811	-0.031587	-0.009003	
0.095064	0.151217	-0.032502	-0.015106	
0.048066	0.227207	-0.029144	-0.011749	
0.061189	0.160068	-0.019684	-0.010223	
0.097200	0.019379	-0.021820	-0.019989	
0.067292	-0.091706	0.008392	0.002899	
-0.090180	-0.133516	0.030975	0.014801	
-0.207675	-0.059052	0.022430	0.000763	
-0.084382	0.019379	0.016937	-0.010223	
-0.095980	0.128328	0.009918	0.002594	
-0.214084	0.118563	0.010223	0.002899	
-0.011139	0.158847	0.049287	0.005341	
0.208591	0.207370	0.038606	0.001678	
0.064240	0.108187	0.030670	0.006561	
-0.153658	-0.081941	0.028229	-0.000763	
-0.337987	-0.285802	0.024261	-0.001373	
-0.336156	-0.467689	0.023346	-0.005646	
-0.111849	-0.552529	0.025482	0.004120	
0.058747	-0.300756	0.023041	-0.011444	
0.143587	-0.030060	0.012665	-0.017242	
0.192111	-0.074311	0.004120	-0.013580	
0.145113	0.000458	-0.003815	-0.019379	
0.104219	0.070039	-0.005341	-0.013580	
0.104525	0.134432	-0.016022	-0.015106	
0.098421	0.131685	0.005951	-0.002899	
0.073396	0.108187	0.021515	-0.002289	
0.068208	0.096895	0.043183	0.006561	
-0.005951	0.095064	0.036164	-0.006866	
-0.101473	0.094759	0.034333	0.000763	
-0.134127	0.082856	0.036469	0.010834	
-0.083161	0.083161	0.026093	0.010529	
0.017242	0.063020	0.011139	-0.008392	
0.084077	0.060273	0.011139	-0.016327	
0.132296	0.070649	0.015411	-0.015717	
0.170749	0.059052	0.024261	-0.009918	
0.131075	0.062104	0.022125	-0.008087	
-0.059968	0.080110	0.018463	0.002289	
0.008698	0.084382	0.070039	-0.005035	
0.089265	0.077363	0.091706	-0.006866	
-0.001984	0.041963	0.126497	-0.011139	
-0.126497	-0.001373	0.143892	-0.023651	
-0.118563	-0.009308	0.085298	-0.033723	
-0.033113	-0.080110	-0.070344	-0.011139	
-0.023041	-0.166171	-0.419471	0.037690	
-0.040132	-0.124056	-0.760052	0.036775	
-0.005341	-0.040132	-0.865950	0.016327	
0.000763	-0.009003	-0.500038	0.005035	
0.023956	0.058137	0.093537	-0.003510	
0.032502	0.069428	1.055161	0.002289	
0.001068	0.048676	1.019760	-0.001373	
-0.041963	0.002289	0.663310	-0.045014	
-0.068208	-0.006256	0.493324	-0.037995	
-0.013580	-0.086213	0.332799	-0.006256	
0.112154	-0.131685	-0.009308	-0.019379	
0.135347	-0.171664	-0.478981	-0.050508	
0.052949	-0.196689	-0.480507	-0.010529	
-0.044099	-0.075837	0.025482	0.006561	
-0.092317	0.101473	-0.141146	-0.002899	
-0.135958	0.320897	-0.130465	-0.025177	
-0.138704	0.347143	-0.190280	-0.013580	
-0.142061	0.272068	-0.260471	0.014801	
-0.229343	0.130770	-0.229954	-0.012970	
-0.261997	-0.025177	-0.032197	-0.006866	
-0.137484	-0.132601	0.055085	-0.000763	
0.077363	-0.145113	0.205234	0.010834	
0.113070	-0.095675	0.257114	0.010834	
0.034028	-0.043183	0.267185	0.019379	
-0.019073	-0.086823	0.067597	0.020905	
-0.138094	-0.262608	-0.265965	0.000763	
-0.160068	-0.315709	-0.161899	-0.037995	
-0.078279	-0.239109	-0.003510	-0.023346	
0.036469	-0.052339	-0.209506	0.004120	
0.031892	0.010223	-0.416419	0.000153	
0.052949	0.038911	-0.019073	0.016632	
0.062104	0.159152	0.329747	0.023041	
0.063020	0.175021	0.311742	0.005035	
0.095980	0.109102	0.528725	-0.020599	
0.116426	0.106356	0.176547	-0.014191	
0.129244	0.104219	0.057221	-0.011139	
0.106966	0.086518	-0.009918	-0.002899	
-0.023346	0.056916	-0.080720	-0.015106	
-0.023346	0.057527	0.106050	-0.017242	
0.068818	0.040437	0.053559	-0.019989	
0.118563	0.051423	0.051118	-0.017853	
0.135958	0.048066	-0.030365	-0.016632	
0.125582	0.042573	-0.266880	-0.005035	
0.031281	0.037080	-0.401464	-0.000153	
-0.053864	0.013885	-0.365759	0.005035	
-0.008392	-0.002899	0.260777	0.008087	
0.051728	0.075227	0.229649	0.002289	
-0.016327	0.069123	0.155489	0.010223	
-0.056306	-0.001984	0.093843	0.000763	
-0.029144	-0.033418	-0.062715	0.002899	
-0.005341	-0.097811	-0.363623	-0.005035	
-0.006256	-0.153048	-0.373083	0.002899	
-0.095064	-0.154573	-0.115511	-0.025787	
-0.132296	-0.071259	0.237583	-0.023651	
-0.073091	-0.027924	-0.475929	-0.009308	
0.048371	0.036164	-0.292516	0.008698	
0.096895	0.072785	0.681010	-0.011139	
0.165256	0.014801	0.714885	-0.022430	
0.104219	0.056916	0.407569	-0.020294	
0.012665	0.072785	0.155794	-0.013580	
-0.058442	0.105135	0.147249	-0.032502	
-0.125582	0.132601	-0.034333	-0.027313	
-0.138399	0.056916	-0.159762	-0.011749	
-0.116121	0.011139	-0.156405	0.001068	
-0.219883	-0.048066	-0.144808	0.000153	
-0.261692	-0.165866	-0.100252	-0.023651	
-0.140535	-0.213168	-0.019989	-0.002289	
-0.029755	-0.160983	-0.011749	-0.001068	
0.054475	-0.080720	-0.047761	-0.006866	
0.135958	-0.024261	-0.049592	-0.000153	
0.209811	0.005035	-0.026093	0.006256	
0.220798	-0.044404	-0.036469	-0.007172	
0.206454	-0.019684	-0.030060	-0.010223	
0.161593	0.042268	-0.010834	-0.002899	
0.079804	0.175937	0.024872	-0.003204	
0.096895	0.257114	0.037690	-0.001373	
-0.019684	0.125277	0.037385	0.012970	
-0.145418	0.014801	-0.021210	0.007172	
-0.142061	-0.026093	-0.080720	0.016327	
-0.099031	-0.062104	-0.018158	0.009308	
-0.103914	-0.016937	0.001068	-0.005035	
0.091401	0.057527	0.019379	-0.002289	
0.370642	0.004120	0.016937	0.001068	
0.257725	-0.017242	0.016937	-0.001373	
-0.135653	-0.022125	0.012054	-0.016327	
-0.226902	-0.008087	0.017242	-0.009003	
-0.102083	0.063325	0.014496	-0.009308	
-0.001984	0.149385	0.023346	-0.000763	
-0.034944	0.104219	0.026093	0.010223	
-0.314794	-0.001068	0.032197	0.010223	
-0.491188	-0.142366	0.034333	-0.001373	
-0.310521	-0.271763	0.037080	0.000153	
-0.012360	-0.273899	0.024261	-0.012970	
0.122835	-0.150301	0.009003	-0.043794	
0.096590	0.018768	0.026398	-0.028839	
0.048982	0.095675	0.029144	-0.016327	
0.078584	0.069123	0.024261	-0.007782	
0.114901	0.048982	0.014801	-0.007172	
0.023651	-0.040437	0.016327	-0.005646	
-0.075532	-0.198520	0.017853	-0.000153	
-0.083772	-0.234226	0.030670	0.001068	
0.003815	-0.146334	0.040132	-0.012970	
0.035249	0.014496	0.017853	-0.017853	
-0.005951	0.155489	-0.019684	-0.023346	
-0.008087	0.221104	0.005035	0.014801	
-0.013275	0.203708	0.001068	0.011444	
-0.016937	0.103609	-0.036164	-0.045625	
0.019684	0.072785	-0.047761	-0.014496	
0.032807	0.113680	0.008087	0.005341	
0.010834	0.129549	0.139620	0.005951	
-0.003204	0.098726	0.197909	-0.004425	
0.013885	0.070039	0.093232	-0.004425	
0.048676	0.054780	-0.096285	-0.003204	
0.074616	0.040742	-0.150911	-0.002899	
0.084077	0.004120	-0.056306	-0.001984	
0.082856	-0.000153	-0.064851	-0.002899	
0.058747	-0.006866	-0.024261	-0.015106	
0.064546	-0.015106	0.049287	-0.011749	
0.060273	-0.018463	0.033418	-0.019379	
0.057832	-0.018463	0.051423	-0.013580	
0.064546	-0.035859	0.134737	-0.027618	
0.090486	-0.021210	0.205234	-0.028839	
0.041963	-0.023956	0.051118	-0.022736	
-0.018158	-0.030975	0.002289	0.004120	
-0.068513	-0.043489	-0.195468	0.008392	
-0.088655	-0.027618	-0.518654	0.012665	
-0.072175	-0.009308	-0.380102	0.015411	
-0.063020	0.000458	0.187228	0.026093	
-0.077973	0.002899	-0.412147	0.023651	
-0.047456	0.006256	-0.519569	0.008698	
0.018463	0.020294	0.677653	-0.003204	
0.033723	0.030365	0.915694	-0.030365	
-0.019989	0.046235	0.265659	-0.024567	
-0.088349	0.049287	-0.156405	-0.015106	
-0.104219	0.029144	-0.132601	0.001678	
-0.066377	-0.007172	0.170444	-0.012360	
0.013885	-0.025177	0.152132	-0.011139	
0.068513	-0.011749	0.209506	0.001678	
0.052339	-0.062715	0.240330	-0.008392	
0.084077	-0.139620	-0.012970	-0.021820	
0.057221	-0.170444	0.012665	-0.009918	
0.001678	-0.139620	-0.019989	-0.009308	
-0.073091	-0.105745	-0.026093	-0.015106	
-0.136263	-0.034333	0.022125	-0.012054	
-0.075837	0.023956	-0.017242	0.006256	
0.004425	0.076447	-0.062409	0.015411	
0.010834	0.135347	-0.190280	-0.022125	
0.022736	0.128328	-0.011139	-0.025177	
0.064546	0.098421	0.080110	-0.007172	
0.238804	0.086518	-0.129549	0.000153	
0.348059	0.091706	-0.130159	0.000763	
0.251621	0.161899	-0.035554	0.008087	
0.104830	0.180209	-0.213168	-0.009308	
-0.024872	0.157931	-0.133211	-0.009308	
-0.100252	0.142672	-0.046845	-0.011749	
-0.194858	0.060578	-0.111238	0.001678	
-0.404211	-0.089570	0.126497	0.001068	
-0.479591	-0.278782	0.049287	0.001678	
-0.477455	-0.386511	-0.036164	-0.008392	
-0.330358	-0.361792	0.037385	-0.015106	
-0.117647	-0.208285	0.043489	-0.002899	
0.014496	0.017853	-0.027008	0.012665	
0.063935	0.038911	-0.209811	-0.007172	
0.092011	0.010529	0.042878	-0.000153	
0.203403	0.002289	0.042878	0.009003	
0.192111	0.004730	0.234226	-0.005035	
0.135042	0.039216	0.352331	-0.008087	
0.075227	0.024261	0.230259	-0.005341	
0.042878	0.029144	0.086213	0.012970	
0.018158	0.037995	-0.256809	0.016022	
0.014801	0.056001	-0.031281	0.022430	
0.046540	0.091096	-0.168612	-0.019989	
0.076142	0.139009	-0.439918	-0.056001	
0.140535	0.077363	-0.126802	-0.038606	
0.257420	0.077668	0.175021	-0.026703	
0.206454	0.092622	0.287633	-0.021515	
0.125582	0.137484	0.004730	0.000458	
0.055390	0.097200	0.005341	0.009308	
-0.003510	0.037385	-0.050508	-0.009003	
-0.087739	0.016937	-0.046845	-0.011749	
-0.209506	-0.038301	0.100252	0.003204	
-0.305028	-0.124056	0.067292	0.001068	
-0.330358	-0.126497	0.348364	-0.022125	
-0.215304	-0.104830	0.057221	-0.006256	
-0.087129	-0.103609	0.100252	-0.005341	
-0.019379	-0.036164	0.089875	-0.000153	
-0.013580	0.000153	0.086823	-0.005035	
0.028229	-0.028534	0.125582	-0.015717	
0.058747	-0.023346	0.053559	-0.020599	
0.059358	-0.001068	-0.014191	-0.003510	
0.056001	0.026093	-0.112764	-0.004120	
0.056611	0.052339	-0.260471	-0.000763	
0.037995	0.032502	-0.377661	-0.004425	
0.039216	0.038911	-0.392309	-0.007477	
0.044404	0.041963	0.006866	-0.012054	
0.042878	0.027313	0.578469	-0.011139	
0.036775	0.016632	0.314183	-0.000763	
0.045930	-0.000153	-0.005341	0.001984	
0.059052	-0.007172	-0.172580	0.021210	
0.041047	-0.004120	-0.397192	0.012054	
0.024567	0.007782	-0.359045	0.000763	
0.013885	0.012054	-0.023346	0.010223	
-0.006256	0.026093	0.093843	-0.013580	
-0.036469	0.042878	0.198520	-0.043489	
-0.029755	0.045014	0.302892	-0.017242	
-0.029144	0.001984	0.309606	-0.003510	
-0.043489	-0.033723	0.003815	-0.004120	
-0.028229	-0.061494	-0.106050	-0.013580	
0.003204	-0.044099	-0.102999	-0.010223	
-0.006866	-0.041657	0.305333	-0.014496	
0.015106	-0.001984	0.215304	-0.009308	
0.028229	0.046540	-0.030060	0.008392	
-0.007782	0.076753	-0.001373	0.005035	
-0.050508	0.139620	-0.048676	0.003815	
-0.056306	0.153963	-0.006866	-0.004120	
-0.024872	0.111544	0.042268	-0.000763	
-0.095980	0.030975	-0.076447	0.001068	
-0.180820	-0.069123	-0.154879	-0.000763	
-0.178683	-0.189059	-0.226292	-0.011749	
-0.012360	-0.210727	0.124971	0.000153	
0.078889	-0.161899	0.309606	-0.006256	
0.071259	-0.085908	0.089265	-0.007172	
0.090486	-0.005646	0.131075	-0.000763	
0.086213	0.026703	0.006256	-0.002899	
0.092927	0.005035	-0.072785	-0.006256	
0.117037	0.019073	-0.075837	0.002594	
0.043794	0.040742	-0.205539	-0.003510	
-0.014801	0.062104	-0.272068	-0.013275	
0.020599	0.072785	-0.421912	-0.010529	
0.120089	0.087129	-0.276340	-0.000153	
0.251316	0.070649	-0.009613	0.001068	
0.245823	0.059052	0.110323	-0.013885	
-0.037080	0.128328	0.079194	-0.015411	
-0.291600	0.198215	-0.072175	-0.015106	
-0.320897	0.168918	0.113070	-0.015106	
-0.308995	0.062104	0.054780	-0.031587	
-0.211337	-0.090486	0.142366	-0.028229	
0.016327	-0.207065	0.236973	-0.028839	
0.014191	-0.238194	0.195163	0.000458	
-0.187228	-0.218662	0.109713	0.014496	
-0.287633	-0.308690	0.080110	0.009003	
-0.045930	-0.300756	0.050813	-0.001984	
0.260471	-0.002899	0.039216	0.004120	
0.344702	0.029144	0.024261	-0.005035	
0.200961	-0.071565	0.024261	-0.001984	
0.036469	-0.017853	0.037385	-0.000153	
-0.001678	0.037385	0.105440	-0.003510	
-0.064240	0.069428	0.040132	-0.005951	
-0.056916	0.131075	-0.077058	-0.012970	
-0.041963	0.144808	-0.237583	-0.008087	
-0.075837	0.108187	-0.466163	0.002899	
-0.029144	0.123446	-0.205234	0.027008	
-0.017242	0.111544	0.253452	0.013885	
0.020905	0.106966	-0.238499	-0.024567	
0.008698	0.070649	0.065156	-0.019989	
-0.012360	0.057527	0.282140	0.004425	
-0.005341	0.045320	0.119783	0.000763	
0.023651	0.017853	-0.008087	-0.010529	
0.031281	-0.019073	0.142061	-0.028534	
0.051118	-0.023346	0.296178	-0.017548	
0.088655	-0.017548	0.254673	-0.015717	
0.092927	-0.015106	0.158542	-0.011444	
0.030670	-0.023956	0.037690	-0.013580	
-0.029755	-0.019684	0.031281	-0.010223	
-0.045320	-0.009003	-0.003204	-0.007172	
-0.074006	-0.005341	-0.032197	-0.010223	
-0.071259	-0.006866	-0.036775	-0.008392	
-0.082246	0.042573	0.002594	-0.010223	
-0.067292	0.061189	0.084992	-0.001373	
-0.037385	0.047456	0.035554	-0.001984	
-0.001678	0.024567	-0.094759	-0.003510	
0.026093	-0.007477	-0.164950	-0.005035	
0.130770	-0.019379	-0.251621	0.011444	
0.213168	-0.017853	-0.228733	-0.012360	
0.215304	0.061189	-0.037995	-0.015106	
0.130770	0.088349	0.230259	-0.004120	
0.054170	0.053254	0.341344	-0.002899	
0.010529	0.010834	0.337682	0.010834	
-0.084382	-0.024261	-0.237583	0.019379	
-0.228123	-0.099642	-0.484779	-0.007172	
-0.335851	-0.156099	-0.182651	-0.029449	
-0.354773	-0.135958	0.012054	-0.012360	
-0.212558	-0.128023	-0.110323	-0.000763	
-0.009003	-0.100252	-0.271152	-0.007782	
0.046540	-0.017548	0.287938	-0.001984	
0.106661	0.062715	0.410316	-0.001984	
0.087129	0.056916	-0.059663	-0.014496	
0.048982	0.040742	0.125582	-0.016632	
0.034638	0.020905	-0.086518	-0.017548	
-0.007477	0.013885	-0.313268	-0.012054	
-0.059968	0.025787	-0.543374	-0.014191	
-0.023651	0.055390	-0.480507	0.005341	
0.041352	0.063325	-0.127413	0.001678	
0.068818	0.072175	0.311131	0.016937	
0.011749	0.113680	0.182956	0.004120	
0.048676	0.121309	0.311131	-0.002899	
0.135042	0.076753	0.526283	-0.003510	
0.136568	0.032502	0.323339	-0.005951	
0.140841	0.039216	0.207065	-0.015106	
0.086213	0.017853	0.167087	-0.020294	
-0.061494	-0.028534	0.160678	-0.013275	
-0.252232	-0.115816	-0.008087	-0.018463	
-0.272068	-0.205844	-0.055390	-0.003204	
-0.130465	-0.246128	-0.086518	-0.008392	
-0.012054	-0.184787	-0.139620	-0.024261	
0.027924	-0.135042	-0.187533	-0.030365	
0.032807	-0.020905	-0.116732	-0.009918	
-0.001068	0.089265	0.164950	0.006866	
0.009003	0.099642	-0.009003	0.005341	
0.032502	0.055085	-0.092927	0.001678	
0.044404	0.041047	-0.070344	0.000458	
0.049287	0.037080	0.004730	0.003204	
0.045930	0.045014	0.323949	0.018463	
0.017853	0.044709	0.259861	-0.003510	
-0.005951	0.022430	0.047761	-0.014191	
-0.009003	0.011749	0.161899	0.003204	
0.012054	0.012054	0.010529	-0.007477	
0.020294	0.014191	-0.087129	0.002594	
-0.002289	0.010529	-0.166781	-0.009918	
-0.007782	0.027008	-0.189975	-0.003815	
-0.005951	0.025177	-0.187228	-0.015106	
0.022125	0.023041	-0.084992	-0.022736	
0.026703	0.015106	-0.006866	-0.004425	
0.006256	0.016022	0.024872	0.008087	
-0.020294	0.006256	-0.023041	-0.002899	
-0.011139	0.012970	-0.015717	-0.001984	
-0.001678	0.019989	0.010834	-0.013275	
0.013275	0.033113	0.085908	-0.007782	
0.019684	0.030365	0.053559	-0.013885	
0.010834	0.037080	0.033418	-0.001678	
-0.003204	0.032197	0.057221	-0.005035	
0.008392	0.022430	0.075837	-0.007477	
0.052644	0.006256	0.048676	-0.005951	
0.122835	0.018463	-0.006866	-0.004120	
0.119478	0.042268	0.089570	-0.003815	
0.046540	0.018158	0.230259	-0.005646	
-0.021820	-0.003510	-0.162509	-0.001373	
-0.081025	-0.029144	-0.302892	-0.010223	
-0.125887	-0.023041	-0.369726	0.010223	
-0.218356	-0.051728	-0.470741	0.012665	
-0.249485	0.050202	0.186923	0.014191	
-0.160678	0.070649	0.139620	-0.000763	
0.032502	-0.066377	0.075532	-0.020599	
0.120089	-0.149080	0.241856	-0.030670	
-0.025482	-0.114595	0.103304	-0.025787	
-0.095980	-0.102083	0.094149	-0.020599	
-0.075837	-0.087739	0.066682	-0.017853	
-0.063935	-0.020294	0.045625	-0.012054	
-0.057221	0.072785	0.018463	-0.005951	
-0.068208	0.154879	-0.009308	-0.003510	
-0.094454	0.178988	-0.052033	-0.013580	
-0.041047	0.090180	-0.038301	0.000153	
0.121920	-0.009918	-0.113070	0.004425	
0.367895	-0.048676	-0.093843	0.000458	
0.415198	-0.021515	0.125277	-0.017853	
0.264744	0.099337	0.044709	-0.001373	
0.078584	0.118563	-0.044709	-0.013885	
-0.046235	0.118868	0.099337	-0.005035	
-0.135653	0.108492	0.224766	0.007172	
-0.188144	0.007172	0.077363	0.014191	
-0.287633	-0.132601	0.204013	-0.005646	
-0.378881	-0.233311	-0.063935	-0.001984	
-0.307775	-0.259556	0.010223	-0.013580	
-0.069123	-0.285192	0.083467	-0.017242	
0.106966	-0.197909	0.025482	-0.007782	
0.086823	-0.052339	-0.040132	-0.004120	
0.068513	-0.009003	-0.023346	0.000763	
0.104219	0.060578	0.033418	-0.001678	
0.126802	0.066987	-0.056611	-0.003204	
0.115511	0.069123	-0.133821	-0.019379	
0.106661	0.086213	-0.094759	-0.009613	
0.068208	0.097811	-0.026093	-0.013580	
-0.034028	0.122530	0.027924	-0.009308	
-0.080415	0.113680	0.040132	0.004730	
-0.048066	0.086518	0.102083	0.002899	
-0.030365	0.069123	0.186618	-0.011139	
-0.039521	0.082246	0.093843	0.003204	
-0.055085	0.056306	0.017242	0.012970	
-0.031281	0.016632	-0.009613	0.008087	
-0.020294	-0.030975	-0.176242	0.000763	
-0.029449	-0.087739	-0.247959	-0.012970	
0.022125	-0.132906	-0.192111	-0.024567	
0.078889	-0.063935	-0.148470	-0.016632	
0.068513	0.007782	-0.090486	-0.013275	
0.059968	0.027008	-0.128328	-0.019989	
0.042268	0.019989	-0.093232	-0.004120	
0.017853	0.013275	0.219578	-0.000763	
0.016632	0.029144	0.307775	-0.001984	
0.009613	0.023346	0.074616	-0.016327	
0.010529	0.031281	0.172275	-0.004120	
0.003204	0.010834	0.226597	-0.009003	
-0.005341	0.008698	0.141756	-0.007172	
0.004730	0.006561	0.022736	-0.006256	
0.017853	0.008698	0.023041	-0.006256	
0.022736	0.000153	-0.095980	-0.009918	
0.032197	0.002594	-0.146639	-0.002899	
0.023651	-0.013580	-0.048371	-0.003510	
0.006866	-0.015411	-0.070039	0.001984	
-0.031281	-0.009003	0.137789	0.005951	
-0.055390	-0.005035	0.108797	-0.002899	
-0.057221	-0.002289	0.248875	-0.003204	
-0.056916	0.005951	0.088655	-0.003510	
-0.045320	0.033113	-0.325780	0.005341	
-0.037080	0.022736	-0.032502	0.008392	
-0.023041	0.024261	0.066377	0.002594	
0.004730	0.010834	-0.254978	-0.017242	
0.023651	0.001678	-0.193027	-0.016327	
0.030670	-0.010834	-0.209506	-0.016022	
0.058442	-0.008087	0.266575	-0.009003	
0.075227	-0.019989	0.251316	-0.015717	
0.073091	-0.015717	0.071565	-0.000763	
0.037690	-0.012970	0.041657	-0.014496	
-0.022430	0.018768	-0.108797	-0.026093	
-0.069123	0.034028	-0.234226	-0.016022	
-0.099947	0.048982	-0.179599	-0.005646	
-0.130465	0.085298	0.174106	-0.005646	
-0.137484	0.068818	0.149385	-0.009918	
-0.159152	0.019379	0.009918	-0.000153	
-0.175632	-0.030975	-0.060273	-0.006256	
-0.124666	-0.088655	-0.016937	-0.016327	
-0.039216	-0.136263	0.024261	-0.011444	
0.085908	-0.075532	0.190890	0.002289	
0.128939	-0.019379	0.110323	-0.000763	
0.117342	-0.017853	-0.156405	-0.020294	
0.111238	-0.024261	0.063020	-0.016327	
0.082551	-0.001068	0.055085	-0.015717	
0.079804	0.008698	0.082551	-0.012970	
0.146029	0.032502	0.108797	0.000763	
0.108492	0.066072	-0.039521	0.005951	
-0.038301	0.096590	0.004425	0.006561	
-0.144197	0.096590	0.132296	-0.002899	
-0.090486	0.075532	-0.052033	0.001068	
-0.033418	0.100252	0.000153	-0.005951	
-0.075532	0.134432	0.050813	0.004730	
-0.049592	0.011749	-0.027618	-0.021515	
-0.015411	-0.158847	-0.047456	-0.027924	
-0.045625	-0.252842	-0.006866	0.001068	
0.009918	-0.221409	-0.066987	-0.005646	
0.153048	-0.077363	-0.094454	-0.001678	
0.157626	0.052033	-0.103914	0.006866	
0.029144	0.135958	-0.103304	-0.001984	
-0.062409	0.089265	0.062409	-0.019989	
-0.054475	0.108492	0.168307	-0.011749	
-0.052033	0.035249	0.477760	-0.007782	
-0.041963	-0.054170	0.583352	0.001984	
-0.072175	-0.047151	-0.144808	0.012665	
-0.175937	0.016022	-0.608072	0.027008	
-0.202182	0.014496	-0.522926	0.028229	
-0.136568	0.015717	-0.167087	-0.000153	
0.028229	0.005035	0.117952	-0.017853	
0.074311	-0.042268	0.023956	-0.019989	
0.023651	-0.090180	0.336766	-0.017242	
0.008392	-0.094759	0.275120	-0.004120	
0.032197	-0.030060	-0.047456	-0.008392	
0.079804	0.005035	0.053254	-0.017242	
0.082551	0.048371	0.058747	-0.001373	
0.055085	0.067597	0.097506	-0.005341	
0.037995	0.040742	-0.104830	-0.003510	
0.022125	0.026703	-0.159152	-0.010529	
0.048371	0.030975	-0.026093	-0.000763	
0.040742	0.023041	0.074616	0.000763	
0.025177	0.026703	-0.038301	0.000458	
0.011139	0.015717	-0.122530	-0.003815	
0.027924	-0.004120	-0.023346	-0.014191	
0.044709	-0.004120	0.021515	-0.014191	
0.055390	0.018768	0.060884	-0.007477	
0.062104	0.027313	0.000458	-0.009308	
0.048676	0.020294	-0.083161	-0.001984	
0.013275	0.023041	-0.065461	-0.001984	
-0.052949	0.014801	-0.066987	-0.015717	
-0.069734	0.017242	-0.049287	-0.000153	
-0.057832	0.019073	-0.027008	-0.003204	
-0.070039	0.038301	0.158847	-0.003510	
-0.110018	0.033113	0.071870	-0.003204	
-0.094454	0.018463	0.011139	-0.004425	
-0.070954	-0.012360	0.071259	-0.013275	
-0.045320	-0.013885	0.047151	-0.005951	
-0.013580	-0.016022	0.034638	-0.014496	
0.004730	-0.023346	0.038911	-0.009308	
0.032197	-0.040437	0.038911	-0.016022	
0.050508	-0.033723	0.036775	-0.005951	
0.069428	-0.028229	0.021210	-0.006866	
0.129244	-0.025177	0.004425	-0.015106	
0.142977	-0.001984	0.005951	-0.017242	
0.068818	0.005951	0.042268	-0.016632	
0.010834	0.015106	0.066682	-0.002289	
-0.022430	0.022430	-0.047761	0.002899	
-0.016022	0.043489	-0.146334	0.007172	
-0.050508	0.056916	-0.205234	0.008698	
-0.152742	0.085603	-0.286717	0.005341	
-0.250401	0.048982	-0.215915	0.009003	
-0.258640	0.009003	0.137178	0.026703	
-0.184482	-0.033418	0.398413	0.000763	
-0.036164	-0.046235	0.079499	-0.042268	
0.066377	-0.084687	0.348974	-0.034638	
0.048982	-0.115816	0.455176	-0.019989	
0.030060	-0.061799	0.005951	-0.035859	
0.040132	-0.034028	-0.032502	-0.019684	
-0.012360	-0.027313	-0.083161	-0.005646	
-0.038911	0.021820	0.078889	-0.003815	
-0.037690	0.062715	0.203403	0.008698	
-0.003204	0.047456	-0.178988	0.002594	
0.051118	0.029144	0.020294	-0.012054	
0.135958	0.020905	0.062409	-0.008087	
0.146639	-0.018463	-0.227512	0.006866	
0.192111	-0.039521	-0.056916	-0.035859	
0.248264	-0.002289	0.059052	-0.027924	
0.235447	0.043183	0.227207	-0.007172	
0.142977	0.187839	0.007782	0.001678	
0.052949	0.305333	-0.233921	-0.007782	
-0.094454	0.275120	-0.193332	-0.007172	
-0.295873	0.095675	0.082856	0.006561	
-0.376440	-0.119478	0.131990	0.018768	
-0.221714	-0.258640	-0.183871	0.001678	
-0.005341	-0.298009	-0.020599	0.000153	
-0.018158	-0.232700	0.252842	-0.005646	
0.026703	-0.164950	-0.068513	-0.009613	
0.045014	-0.147860	-0.239719	-0.006256	
-0.030975	-0.005951	-0.221104	0.002289	
-0.087129	0.037995	-0.083772	0.012970	
-0.047761	0.051118	-0.062715	0.005341	
-0.063020	0.036775	-0.005646	0.000458	
-0.084382	0.034944	0.034944	-0.014496	
-0.001373	0.076447	0.045625	-0.017853	
0.019684	0.044099	0.013275	-0.016022	
0.024567	0.044709	0.038911	0.000153	
0.020294	-0.006866	0.082856	-0.005341	
0.012360	0.013885	0.042878	-0.001678	
0.025787	0.013275	0.028534	-0.003815	
0.063935	0.024567	0.026398	0.005035	
0.075837	0.028534	-0.001373	-0.000763	
0.092011	0.027924	-0.016022	-0.006256	
0.100863	0.018158	-0.033723	-0.009613	
0.079804	0.017242	-0.042573	-0.005646	
0.028839	0.021820	0.041352	0.003815	
-0.023346	0.018768	0.205234	0.005951	
-0.055085	0.014801	0.109102	0.000458	
-0.063020	0.032502	-0.029755	0.002899	
-0.053559	0.043183	0.070954	0.000763	
-0.044404	0.033113	0.014191	-0.010529	
-0.021210	0.046540	-0.024567	0.000763	
-0.018463	0.024567	0.034944	-0.012054	
-0.006256	0.027008	-0.099031	-0.005951	
0.004730	0.018768	-0.094454	0.005951	
0.016327	0.001068	0.057221	-0.003510	
0.012054	-0.005341	-0.106356	-0.021515	
-0.000153	-0.000763	-0.402685	-0.015106	
-0.023346	-0.001984	-0.271152	0.000153	
-0.035249	-0.009613	0.235142	0.001068	
-0.041352	-0.009918	0.545815	-0.026398	
-0.034028	-0.004120	0.309300	-0.032197	
-0.024261	0.006561	0.320592	-0.017242	
-0.002899	0.010529	0.228428	-0.004425	
0.025787	0.005951	0.164950	0.004425	
0.033723	0.003204	-0.006866	-0.009003	
0.041352	-0.000153	-0.011139	-0.016022	
0.045014	-0.003510	-0.118563	-0.019379	
0.050813	-0.001373	-0.251621	-0.008087	
0.054475	-0.002289	-0.285192	-0.005341	
0.041352	0.013275	-0.172885	-0.007477	
-0.009003	0.005951	0.261082	-0.006256	
-0.003815	-0.005646	0.317845	0.000763	
0.001068	-0.003815	0.295568	-0.010529	
-0.019989	-0.013580	0.148470	-0.010529	
-0.085298	-0.017853	-0.225681	-0.009308	
-0.098116	-0.003510	-0.375219	-0.009918	
-0.067292	0.011749	-0.182040	-0.007477	
-0.087739	0.005951	-0.121309	-0.009003	
-0.106356	-0.012054	-0.027618	-0.008392	
-0.089265	-0.034028	0.029144	-0.010223	
-0.024872	-0.015717	-0.040437	-0.001068	
0.080415	-0.046235	0.088044	-0.005035	
0.160373	-0.031281	0.413672	0.005951	
0.158847	-0.002289	0.123446	0.002289	
0.160068	0.001984	-0.157626	0.001068	
0.166781	0.027924	-0.073701	0.005035	
0.141451	0.042878	-0.077973	-0.007172	
0.108797	0.030975	-0.274204	-0.032502	
0.022125	0.090180	-0.261997	-0.013275	
-0.149996	0.146029	-0.253452	-0.005646	
-0.217746	0.066682	-0.067903	-0.004120	
-0.244602	-0.047151	-0.011749	0.006256	
-0.230564	-0.103609	-0.056306	-0.000153	
-0.089875	-0.112764	0.198215	-0.004120	
0.088960	-0.084687	0.248875	-0.000763	
0.128633	-0.024261	0.105440	0.010223	
0.019684	0.013275	0.008698	0.004425	
-0.046540	0.036775	0.100863	0.012665	
-0.113680	0.033113	0.142366	0.009308	
-0.095675	0.018158	0.024872	-0.004425	
-0.057527	0.008087	-0.023956	-0.023651	
-0.076142	-0.013885	-0.014496	-0.015717	
-0.095369	-0.073396	-0.074311	-0.012054	
-0.094149	-0.085603	-0.022430	-0.028534	
-0.041963	-0.070344	-0.129549	-0.049592	
0.017242	-0.043794	-0.241856	-0.021515	
0.039826	0.001984	-0.408179	-0.003510	
0.081025	0.034638	-0.391394	0.012665	
0.089875	0.018768	0.087434	0.006256	
0.094759	0.033113	0.431373	0.006256	
0.089875	0.030365	0.561074	0.000153	
0.082856	0.032197	0.670329	-0.016327	
0.073091	0.048676	0.574197	-0.020599	
0.044709	0.062715	0.140535	0.000153	
-0.000763	0.045320	0.027008	0.005951	
-0.046235	0.026093	-0.046540	-0.006256	
-0.080110	0.018768	-0.147554	-0.012054	
-0.080110	0.005035	-0.160068	-0.002899	
-0.029755	-0.003815	0.088655	0.005951	
0.012360	0.010834	0.220798	0.012054	
0.065156	0.046235	0.067597	0.008698	
0.102999	0.038911	0.011139	-0.010529	
0.088044	0.044709	0.010529	-0.016022	
0.051118	0.061189	-0.179904	-0.019989	
0.001984	0.068513	-0.291295	-0.001984	
-0.063020	0.043489	-0.286107	0.001678	
-0.077058	0.008698	-0.319371	-0.011444	
-0.059968	-0.017242	-0.085908	0.001678	
-0.023651	-0.071259	0.102388	0.001068	
0.022125	-0.095369	-0.164645	-0.011444	
0.006866	-0.098421	-0.025787	-0.019073	
-0.029755	-0.035859	0.018463	-0.012970	
-0.085298	0.002899	-0.149080	0.002289	
-0.088655	0.001984	0.078889	0.012665	
-0.016022	0.022736	0.164340	-0.012054	
0.030670	0.004425	0.073396	-0.009918	
0.040742	-0.005341	-0.048676	0.010834	
0.019073	0.014191	0.099642	0.018463	
0.017853	0.012054	-0.025482	-0.007782	
0.050202	0.000153	0.084992	-0.010223	
0.027313	-0.026093	0.142061	-0.017853	
0.074006	0.009308	0.140535	-0.015717	
0.095369	0.037995	-0.040132	-0.019684	
0.044404	0.042573	-0.316319	-0.012970	
-0.037690	0.052644	-0.468910	-0.006866	
-0.037080	0.082246	-0.434424	-0.009613	
-0.022430	0.102388	-0.348669	-0.004425	
-0.126192	0.087129	0.244907	0.005035	
-0.196383	0.012665	0.444495	0.005035	
-0.268711	-0.048066	0.208285	-0.002899	
-0.152437	-0.093232	0.211337	-0.005951	
0.061189	-0.135958	0.319066	-0.005035	
0.103304	-0.143892	0.485695	-0.005035	
0.127413	-0.083467	0.365759	-0.000763	
0.067292	-0.009613	0.091401	-0.002899	
0.013885	0.043183	0.059663	-0.019989	
0.048066	0.133821	0.042268	-0.005035	
0.030060	0.139620	-0.062409	-0.008392	
0.008698	0.074311	-0.122225	-0.015717	
-0.044099	0.032502	-0.179599	-0.015106	
-0.119173	0.004425	-0.072785	-0.012970	
-0.103609	-0.144503	-0.095980	-0.009613	
-0.057221	-0.200046	0.031281	-0.015411	
-0.004120	-0.178683	0.184787	-0.008392	
0.060578	-0.148165	-0.052033	-0.009918	
0.098726	-0.045014	-0.098421	-0.009918	
0.098116	0.052949	-0.027618	-0.007782	
0.127413	0.054170	-0.052033	-0.003204	
0.149080	0.046235	-0.064851	-0.010223	
0.090486	0.042268	-0.042268	-0.001678	
0.059358	0.052644	0.051423	-0.010223	
0.081025	0.143892	0.289769	-0.012970	
0.064546	0.157626	0.261692	-0.003510	
0.033113	0.080415	0.027313	-0.005035	
0.009003	0.007782	-0.209506	-0.007172	
-0.010223	-0.027313	-0.453040	0.009003	
-0.106050	-0.028534	-0.378881	0.028229	
-0.232700	-0.031281	0.200961	0.033723	
-0.313878	-0.034028	-0.245518	0.006866	
-0.326085	-0.031281	-0.351416	-0.004425	
-0.211642	-0.023651	-0.203708	-0.001984	
-0.128633	-0.001373	0.200961	-0.022125	
-0.103914	0.004730	0.157321	-0.016327	
0.002289	0.003204	0.053864	-0.021515	
0.106050	0.032502	0.088960	-0.019379	
0.135958	0.051423	0.073701	-0.006256	
0.124056	0.070039	0.102083	0.008087	
0.091401	0.030365	0.081635	-0.014191	
0.080110	0.010223	0.067292	-0.007172	
0.085908	-0.014801	0.066682	0.002899	
0.092927	-0.015106	0.058747	0.000458	
0.100557	0.007172	0.043489	-0.013580	
0.082551	0.012054	0.042573	-0.010223	
0.063935	-0.001678	0.032807	-0.018463	
0.041352	-0.000763	0.031587	-0.014496	
0.005035	0.004425	0.044404	-0.005035	
-0.011444	0.014191	0.055696	-0.006256	
0.000458	0.026093	0.045014	-0.003510	
0.042268	0.016327	-0.073701	-0.006256	
0.088960	0.013275	-0.200046	0.000763	
0.084687	0.016632	-0.344702	-0.017242	
0.030060	-0.001984	-0.351721	-0.005035	
-0.023651	-0.005646	-0.127413	-0.001373	
-0.041047	0.037995	0.181125	-0.000763	
-0.047761	0.075227	0.098116	0.012665	
-0.077363	0.096895	0.336766	0.018768	
-0.159457	0.106661	0.746014	0.009918	
-0.202182	0.027924	0.169528	-0.002289	
-0.161593	-0.068208	0.040132	-0.021515	
-0.098421	-0.107576	0.120394	-0.019379	
-0.045320	-0.144808	0.044404	-0.014496	
-0.016022	-0.154573	0.126497	-0.005951	
-0.039826	-0.092011	0.124056	-0.002899	
-0.123140	-0.055085	-0.046235	-0.009918	
-0.142061	-0.061799	-0.058442	0.000153	
-0.027008	-0.036164	-0.049897	-0.009308	
0.114595	0.034638	0.001678	-0.016632	
0.143587	0.036164	-0.047761	-0.024567	
0.124666	0.062715	-0.015717	-0.007477	
0.072175	0.058137	-0.058137	-0.016327	
0.066072	0.032197	-0.187533	-0.009003	
0.045014	0.010834	-0.133211	-0.003510	
0.017242	0.008087	0.057527	-0.006256	
-0.016937	-0.000763	0.136263	-0.006866	
0.000763	0.004730	-0.005341	0.002289	
0.009918	0.028229	-0.083161	-0.009308	
-0.003815	0.045014	-0.167697	-0.016327	
-0.041963	0.041963	-0.185397	-0.004120	
-0.063325	0.030975	-0.160678	-0.012054	
0.009613	0.025787	-0.058442	-0.017242	
0.024872	-0.007782	-0.076142	-0.009918	
-0.042878	-0.025482	0.020294	0.001678	
-0.054170	-0.034333	0.121920	-0.012970	
0.074311	-0.025482	-0.016937	-0.013580	
0.189059	0.017853	-0.006256	-0.002899	
0.190585	0.088349	0.066377	-0.005646	
0.098726	0.118258	0.024261	-0.011749	
0.031892	0.106661	0.026398	-0.004425	
0.016022	0.054780	0.020905	-0.007477	
0.002594	0.016022	0.067903	-0.004120	
-0.087434	-0.032197	0.088960	-0.010223	
-0.113375	-0.057221	0.009003	-0.002289	
-0.103304	-0.086823	-0.018158	-0.001373	
-0.112154	-0.052033	-0.084382	-0.009003	
-0.159457	-0.001678	-0.089875	0.005951	
-0.157321	0.014801	0.166476	0.018463	
-0.078584	-0.041352	0.384375	0.011139	
-0.009003	-0.094759	0.224155	-0.003815	
0.010834	-0.138704	-0.044709	-0.013580	
0.028534	-0.148775	-0.153658	-0.012054	
0.042878	-0.116426	-0.269627	-0.009308	
0.019073	-0.005035	-0.056306	-0.008392	
0.010529	0.050508	0.073396	-0.007477	
-0.022430	0.041352	-0.092622	-0.014191	
-0.040132	0.046235	-0.207065	-0.005951	
-0.030975	0.041047	-0.232700	-0.011139	
-0.006866	0.048066	-0.298619	-0.008392	
-0.022125	0.036164	-0.216220	-0.011444	
-0.012360	0.049287	0.384069	0.000153	
0.012970	0.036469	0.560159	-0.010529	
0.044404	0.021820	-0.009003	0.010834	
0.052033	0.029755	0.129549	0.005341	
0.053254	0.042573	0.142366	-0.016632	
0.048371	0.057221	0.012665	-0.022430	
0.014496	0.063630	0.133821	-0.022736	
-0.034028	0.062409	-0.060578	-0.005646	
-0.069123	0.031892	-0.056001	0.010223	
-0.073091	-0.003815	0.256504	0.018768	
-0.057527	-0.005646	0.481422	0.012054	
0.016937	0.005035	-0.034333	0.014496	
0.052339	0.017853	0.091706	-0.007477	
0.116426	0.022125	0.170749	-0.028534	
0.168612	-0.001068	-0.110323	-0.026398	
0.148775	-0.009613	-0.217441	-0.007477	
0.087434	0.002594	-0.290685	-0.010529	
0.020599	0.005035	-0.174716	-0.025787	
-0.061494	-0.016937	-0.113375	-0.028229	
-0.135653	-0.027313	0.158847	-0.016327	
-0.150606	-0.053559	0.121614	0.002899	
-0.103914	-0.081941	0.115206	0.006866	
-0.048066	-0.097811	0.085908	-0.001373	
-0.004425	-0.041657	0.041657	-0.003204	
0.041047	0.024872	-0.074311	0.006866	
0.074006	0.047456	-0.092317	0.003204	
0.128328	0.049897	-0.108492	0.006561	
0.157626	0.054475	-0.297093	-0.001678	
0.078584	0.152742	-0.385900	-0.009308	
0.003204	0.097811	-0.272678	0.000763	
-0.074006	0.010834	0.002899	0.006256	
-0.145723	-0.050202	-0.397802	-0.005035	
-0.145113	-0.118563	-0.303197	0.001068	
-0.121614	-0.147554	0.615396	-0.019989	
-0.089875	-0.089875	0.532083	0.000458	
-0.072175	-0.011444	0.309606	-0.000763	
-0.113375	0.058137	0.065766	-0.022125	
-0.093843	0.142977	-0.071565	-0.015106	
-0.026398	0.152742	0.039521	-0.007172	
-0.014191	0.063325	0.064546	-0.015106	
-0.038301	0.000763	0.271152	-0.020294	
-0.101778	-0.056001	0.478371	0.002899	
-0.180820	-0.084077	0.070649	0.023041	
-0.139925	-0.062409	0.116426	0.016022	
-0.027313	-0.033113	0.070039	-0.003204	
0.096285	0.007172	-0.052644	-0.000763	
0.159457	0.030670	-0.265965	-0.010529	
0.186313	0.024567	-0.240025	-0.022736	
0.216830	-0.005646	-0.074616	-0.029449	
0.202182	0.014191	-0.219578	-0.003204	
0.138094	0.030975	-0.498512	-0.013885	
0.129244	0.069123	-0.215915	-0.012360	
0.072480	0.058442	0.301976	-0.001678	
-0.000763	0.024567	-0.320897	-0.005951	
-0.009003	-0.002289	-0.321202	-0.015411	
0.013275	-0.037690	0.349890	0.008698	
0.034638	-0.077668	1.222706	0.031587	
0.037690	-0.070649	0.130465	-0.001678	
-0.019684	-0.003204	-0.054475	-0.028229	
-0.134127	0.030975	-0.189670	-0.031587	
-0.148775	0.014191	-0.359045	-0.001678	
-0.080110	-0.000763	0.035554	0.015411	
0.079804	-0.015411	0.077668	-0.008392	
0.065156	0.000153	0.059358	-0.038606	
-0.012970	-0.021820	0.034333	-0.017853	
-0.111544	-0.068208	0.081635	-0.010529	
-0.065156	-0.008392	0.101168	-0.003815	
0.033113	0.086213	0.079499	-0.007172	
0.033113	0.089570	0.046235	-0.011749	
-0.097506	0.052644	-0.074922	-0.014496	
-0.222019	0.037080	-0.155794	-0.001984	
-0.264439	-0.051728	-0.047761	-0.008392	
-0.177463	-0.150911	0.016327	-0.007172	
-0.017548	-0.150606	0.024261	-0.001678	
0.059358	0.018158	0.009308	-0.014496	
0.101168	0.127718	-0.034333	-0.012054	
0.104830	0.076447	-0.086518	-0.009308	
0.059358	0.024567	-0.184176	-0.002899	
0.001068	0.004730	-0.346838	0.004120	
0.031281	0.017242	-0.477455	0.008087	
0.074616	0.016327	-0.527809	-0.006256	
0.082551	0.051118	0.137789	0.002899	
0.030670	0.002899	0.705729	0.001068	
-0.048371	-0.067597	0.162814	-0.002289	
-0.061494	-0.122225	0.350500	-0.001984	
-0.019989	-0.110933	0.218661	-0.000153	
0.004730	-0.023651	-0.071870	-0.022125	
-0.007172	0.007782	-0.061494	-0.007782	
-0.000763	0.012665	-0.040132	0.002899	
0.014496	0.050813	-0.218356	0.009918	
0.010834	0.059358	0.111544	0.010223	
0.027924	0.045320	0.344702	0.003204	
0.032197	0.043183	0.500038	-0.008392	
0.027924	0.023346	0.106050	-0.017242	
0.037995	0.017242	0.061189	-0.014496	
0.050508	0.002594	0.038301	-0.009918	
0.056611	0.016937	0.000763	0.006561	
0.034944	0.016632	-0.026398	-0.019379	
0.029144	0.032197	-0.041352	-0.013275	
-0.000763	0.039826	-0.054780	-0.011139	
-0.009003	0.036775	-0.056306	-0.007782	
-0.033723	0.031281	-0.040132	-0.001984	
-0.065766	0.023041	-0.030060	-0.001678	
-0.055696	0.019989	0.034028	-0.005646	
-0.031587	0.018463	0.065156	-0.011444	
-0.001068	0.018768	-0.029144	-0.009613	
0.043794	0.014496	-0.068818	0.000153	
0.061189	0.004120	-0.086823	0.001678	
0.048676	-0.011444	-0.045320	0.001068	
0.041352	0.006866	-0.028534	0.013885	
0.017853	-0.001373	-0.087739	-0.010529	
-0.000153	0.003815	-0.153963	-0.013580	
-0.052949	0.007172	-0.139315	0.002899	
-0.101473	0.000153	-0.011139	0.016937	
-0.144197	-0.043489	-0.113985	-0.000763	
-0.142061	-0.059052	0.188754	0.005951	
-0.113070	-0.044099	-0.113985	-0.001373	
-0.055390	-0.021515	-0.188144	-0.006256	
-0.022430	0.002289	0.097506	-0.005646	
-0.004425	0.027924	0.076447	-0.017242	
0.009003	0.018768	0.112154	-0.019989	
0.012665	0.004425	0.157321	-0.005646	
0.018158	-0.000153	0.119783	-0.011749	
0.030060	-0.000763	0.091706	-0.020294	
0.036775	-0.002899	0.042573	-0.011444	
0.038606	-0.001984	0.037080	-0.016632	
0.045014	0.001068	0.026093	-0.009003	
0.040437	0.001984	0.011749	-0.012970	
0.036469	0.007172	0.011139	-0.009918	
0.023651	0.003204	-0.001678	-0.013885	
0.018463	0.009003	0.000458	-0.014191	
-0.004425	-0.014191	-0.011444	-0.025787	
0.001678	-0.031587	-0.035249	-0.003510	
0.030670	-0.034944	-0.095064	-0.000763	
0.041047	-0.029449	-0.060578	-0.008392	
0.030365	-0.005035	0.116426	-0.001984	
-0.017853	0.016022	0.235752	0.012360	
-0.083161	0.028534	0.254368	0.010834	
-0.082246	0.038911	0.359961	0.008087	
-0.092622	0.053254	-0.041352	0.018158	
-0.163424	0.062409	-0.137789	-0.003204	
-0.135347	0.049897	-0.240025	0.000153	
-0.049287	0.004730	-0.390173	0.005951	
0.014191	-0.036469	-0.694133	0.012970	
0.058137	-0.045014	-0.277866	-0.014191	
0.080720	-0.027008	0.147860	-0.026703	
0.092011	-0.050508	0.157321	-0.034944	
0.075227	-0.029144	0.280918	-0.025787	
0.036775	-0.008392	0.273594	-0.029755	
0.015106	0.000763	0.321813	-0.032502	
0.002594	-0.003510	0.199740	-0.013580	
-0.010223	-0.001678	-0.068818	-0.005951	
-0.005341	0.004120	-0.161899	-0.011139	
-0.000153	0.011749	-0.093843	-0.014191	
0.004730	0.008087	-0.093232	-0.010529	
0.005035	0.008087	-0.041963	0.003204	
0.006866	0.010529	0.019073	-0.001984	
0.002594	0.005951	0.010223	-0.012054	
0.002899	0.012360	0.120089	-0.007477	
0.000763	0.012360	0.141756	-0.002899	
0.005646	0.022430	0.285497	0.005035	
-0.005646	0.030365	-0.113985	0.011444	
-0.000763	0.026398	-0.180820	0.011444	
-0.003815	0.017853	0.244297	0.018463	
0.002899	0.026093	0.359961	0.023651	
-0.003510	0.019379	-0.149385	-0.005951	
-0.008087	0.021820	-0.432288	-0.011139	
-0.021820	0.001678	-0.294652	-0.007172	
-0.017242	0.004425	-0.223240	0.008087	
-0.015106	0.002594	-0.317540	-0.009308	
0.001984	0.005951	-0.144503	-0.008392	
0.008087	0.010834	0.384985	0.003815	
0.010834	0.012054	0.578469	-0.004425	
0.013275	0.011749	0.168612	-0.003510	
0.009918	0.010223	0.290380	-0.007477	
0.003815	0.005035	0.072480	-0.013275	
-0.009003	-0.011444	-0.033418	-0.014191	
-0.008087	-0.015106	-0.052339	-0.008087	
0.006256	-0.020905	-0.041352	-0.007172	
0.022736	-0.015106	0.028534	-0.012054	
0.030670	-0.015717	0.158542	-0.011749	
0.037995	-0.011139	0.054780	-0.009003	
0.031281	-0.023651	0.043183	-0.017242	
0.040132	-0.018463	-0.069123	-0.014191	
0.022125	-0.015106	-0.045625	-0.017548	
-0.023651	-0.014191	0.046845	-0.015106	
-0.034333	-0.002289	0.480812	-0.003510	
-0.055085	0.006561	0.368505	0.002594	
-0.089875	-0.001068	-0.080110	-0.005035	
-0.034333	0.027008	-0.407264	-0.010223	
0.087129	0.063630	-0.478065	0.028229	
0.090486	0.074922	-0.302892	0.052949	
-0.005341	0.085298	-0.455176	0.015411	
-0.022430	0.117342	-0.748150	-0.007782	
0.028534	0.149996	-0.586404	-0.033723	
0.075837	0.181735	0.165866	-0.019379	
0.021210	0.137789	0.377966	-0.007172	
-0.009003	0.074922	0.708171	-0.048066	
-0.101168	-0.019379	0.406653	-0.042878	
-0.350805	-0.219273	0.240635	-0.024261	
-0.276646	-0.305943	0.156404	-0.015717	
-0.027008	-0.221104	0.065766	-0.037995	
0.321813	-0.130159	0.073091	-0.034333	
0.359655	0.086823	0.046235	-0.019684	
-0.001068	0.255283	0.032807	-0.003204	
-0.443580	0.189059	0.032807	-0.011444	
-0.662700	-0.084687	0.011139	-0.011444	
-0.506447	-0.282750	-0.113070	-0.009918	
-0.235447	-0.316930	-0.352636	-0.002289	
-0.051423	-0.363623	-0.262913	0.020905	
-0.084077	-0.297704	0.182956	0.004730	
-0.072480	0.005951	0.276951	0.000153	
0.079804	0.123140	0.259251	-0.011749	
0.299840	0.062104	0.272678	0.008087	
0.327306	0.109407	-0.176852	0.021515	
0.211337	0.157626	-0.375525	0.022430	
0.081330	0.177768	-0.515297	0.012360	
0.074922	0.312352	-0.403296	0.016327	
0.087434	0.354162	-0.136263	0.001068	
0.079804	0.278477	0.624857	0.019379	
0.157321	0.197604	0.517433	0.012970	
0.210727	0.071259	-0.190890	0.010223	
0.184176	-0.121920	-0.307469	0.017242	
0.094149	-0.277256	-0.125277	0.006561	
0.071259	-0.400244	0.362402	0.011139	
0.085298	-0.431373	0.461280	0.006256	
0.122835	-0.341039	0.201877	-0.026398	
0.133211	-0.162814	0.123446	-0.018463	
0.090180	0.078584	0.087739	-0.001678	
0.055085	0.116426	0.030060	-0.025177	
-0.009613	0.179904	0.012970	-0.012970	
-0.116732	0.155794	0.038606	-0.023651	
-0.149996	0.084687	0.145723	-0.020599	
-0.180209	0.093537	0.327611	-0.015717	
-0.148470	0.099337	0.137178	-0.009003	
-0.089570	0.077668	-0.080110	0.008392	
-0.052949	0.075227	-0.056611	0.019989	
-0.016022	0.049897	-0.701152	0.005035	
0.059358	0.043489	-1.143053	-0.002899	
0.117037	0.039216	-0.689250	0.002899	
0.138704	0.023041	-0.077668	0.009918	
0.134432	0.023346	0.637369	-0.003815	
0.092011	0.013885	0.677348	-0.029755	
0.001984	0.037385	-0.011444	-0.029449	
-0.092317	0.060273	0.164340	-0.021210	
-0.157931	0.044099	0.149691	-0.020294	
-0.244602	0.023956	0.022736	-0.017853	
-0.322728	0.006256	0.046540	-0.007172	
-0.308690	-0.032197	-0.051728	-0.012970	
-0.228428	-0.054475	0.074616	-0.003510	
-0.153353	-0.098726	0.170138	-0.019989	
-0.095980	-0.081330	0.056611	-0.025482	
-0.015717	-0.008087	0.085298	-0.016327	
0.063325	0.014191	0.093232	-0.019379	
0.105135	0.020294	0.014801	-0.028229	
0.143282	0.020294	-0.337071	-0.019073	
0.150911	0.000458	-0.373388	-0.000153	
0.144503	-0.021820	0.064546	-0.010529	
0.157321	-0.021210	0.034638	-0.009003	
0.160983	-0.023956	0.132296	-0.004120	
0.150301	-0.027313	0.030670	0.012360	
0.106661	-0.032197	0.280918	0.008698	
0.065156	-0.012360	-0.199740	-0.007477	
-0.007477	-0.009308	-0.146334	-0.008087	
-0.117647	0.021820	0.010529	0.016632	
-0.222019	0.051423	0.026093	0.016632	
-0.143282	0.043183	0.320287	0.005951	
-0.025482	0.040742	0.330052	-0.019073	
0.032807	0.067292	-0.246738	-0.022736	
0.120089	0.108187	-0.314488	-0.027313	
0.225376	0.154573	-0.248875	-0.020294	
0.110018	0.161288	0.222324	-0.023346	
-0.003815	0.115206	0.222630	0.006561	
-0.053559	0.057527	0.074616	0.015411	
-0.034028	-0.044404	-0.092317	-0.004425	
0.009613	-0.113680	-0.078889	-0.010529	
-0.029755	-0.100863	-0.009918	-0.016632	
-0.161899	-0.134432	-0.008392	-0.009003	
-0.336156	-0.212863	-0.046235	-0.011444	
-0.369726	-0.283360	-0.078889	-0.004425	
-0.204013	-0.308080	-0.086213	-0.005341	
-0.044404	-0.266270	-0.005646	-0.005035	
0.018158	-0.118563	0.159457	-0.009003	
0.042878	-0.009613	0.049287	0.001068	
0.061189	0.034944	0.046235	0.002289	
0.127413	0.072175	0.223240	-0.001984	
0.172580	0.081635	0.152132	-0.001373	
0.296483	0.174106	-0.168612	0.009308	
0.494545	0.175326	-0.080720	-0.009613	
0.451514	0.135347	0.076447	-0.017242	
0.161593	0.116732	0.149385	-0.012970	
-0.124666	0.074922	-0.260471	-0.009918	
-0.264439	0.098421	-0.412757	0.002289	
-0.215610	0.131685	-0.007172	0.020905	
-0.247654	0.070954	0.213168	0.021515	
-0.409095	-0.016327	0.089570	-0.002899	
-0.520485	-0.106050	-0.099337	0.002289	
-0.402685	-0.114901	-0.224155	-0.001373	
-0.125277	-0.120699	-0.026093	-0.006256	
0.060578	-0.084687	0.300450	-0.006866	
0.156099	0.053254	0.289159	0.011139	
0.189670	0.051118	0.133516	-0.007477	
0.193637	0.054170	0.137178	-0.012054	
0.165256	0.063325	0.104830	-0.007782	
0.156711	0.068208	0.093843	-0.011749	
0.146639	0.071259	0.011749	-0.013580	
0.121920	0.054170	-0.005951	-0.007782	
0.045014	0.014496	-0.020599	-0.011444	
-0.025177	-0.009613	-0.012054	-0.017548	
-0.017853	-0.019989	0.002594	-0.016327	
0.012360	-0.034333	0.032502	-0.003510	
0.000153	-0.034333	0.109102	-0.004120	
-0.010834	-0.004120	0.059663	-0.014191	
0.018768	0.048371	-0.131380	-0.002899	
0.018158	0.078584	-0.163119	0.008698	
0.006256	0.081330	-0.272984	0.006561	
0.040742	0.085603	-0.271152	0.005341	
0.082856	0.052339	-0.193332	0.006866	
0.079804	-0.012360	-0.022430	-0.012970	
0.046235	-0.015717	-0.023956	-0.028534	
-0.047761	-0.015717	0.045625	-0.020294	
-0.137178	-0.057221	0.052949	-0.027618	
-0.127718	-0.089875	0.037690	-0.022125	
-0.100252	-0.079499	0.073396	0.002594	
-0.096285	-0.077973	0.065156	-0.000763	
-0.093232	-0.097811	0.194858	0.002899	
-0.061189	-0.124666	0.248875	0.004425	
-0.050508	-0.130159	0.131075	-0.001984	
-0.069428	-0.089875	0.019073	-0.001678	
0.008392	0.001678	-0.122225	-0.007172	
0.087129	0.050813	-0.083772	-0.032807	
0.155489	0.024872	0.071259	-0.048066	
0.289769	0.045014	-0.002899	-0.019073	
0.408790	0.066682	0.114901	-0.013580	
0.207370	0.070039	0.151522	-0.012054	
-0.036164	0.071565	0.134737	-0.011444	
-0.055390	0.137484	-0.236057	0.007172	
0.008087	0.214999	-0.532998	-0.003204	
-0.064240	0.262302	-0.184176	0.003204	
-0.202182	0.254063	0.106356	-0.010223	
-0.336461	0.166171	0.082856	-0.022430	
-0.432288	0.016022	0.683146	0.004120	
-0.402685	-0.155794	0.598307	0.005035	
-0.174411	-0.302587	0.152742	-0.003510	
0.053864	-0.467689	-0.030060	-0.007172	
0.100252	-0.395361	-0.540017	0.004425	
0.094759	-0.170138	-0.761578	0.018768	
0.060884	-0.006256	-0.395056	0.012360	
0.026398	-0.004120	-0.104219	-0.016327	
0.075837	0.017242	-0.013580	-0.016022	
0.126192	0.089570	0.153658	-0.012970	
0.138094	0.118258	0.028839	-0.001984	
0.118258	0.085298	0.453956	-0.007172	
0.100863	0.079499	0.553140	-0.013580	
0.084382	0.089570	0.115511	-0.012054	
0.007172	0.106661	0.025482	0.001068	
-0.090180	0.108187	-0.013885	-0.000763	
-0.142061	0.091401	-0.044709	-0.005951	
-0.121614	0.041963	-0.041963	0.003815	
-0.078584	-0.019684	-0.115206	-0.003510	
-0.013580	-0.056001	-0.137484	0.001678	
0.070344	-0.034944	0.052949	-0.001678	
0.109407	0.063325	0.117952	0.000153	
0.088044	0.106966	0.044404	-0.003510	
0.034944	0.117342	0.178988	-0.001373	
-0.028229	0.065156	0.011139	-0.015717	
-0.030365	-0.012054	-0.115511	-0.018158	
-0.072480	-0.101473	-0.092927	-0.019073	
-0.063630	-0.062715	-0.090180	-0.000763	
-0.011444	0.002899	-0.024261	-0.003510	
-0.005035	0.019989	0.068513	0.000153	
-0.145418	0.067597	0.068818	-0.015717	
-0.269627	0.022430	0.026703	-0.011749	
-0.147860	-0.069428	-0.037385	-0.010223	
0.054170	-0.092011	-0.086213	-0.007477	
0.157321	-0.037690	0.043183	0.012054	
0.142977	-0.054170	0.007782	0.000153	
0.082551	-0.104525	-0.112459	-0.001373	
-0.012054	-0.120394	0.007782	-0.006256	
-0.020294	-0.120089	0.003204	-0.005341	
-0.041657	-0.051728	-0.026093	-0.009308	
-0.034028	0.021210	-0.091706	0.005035	
0.030670	0.018768	-0.011444	-0.008392	
0.133211	0.046235	-0.103304	-0.023651	
0.171359	0.040132	-0.213168	-0.032807	
0.196383	0.040132	-0.169528	0.000763	
0.135042	0.065156	-0.124361	0.000153	
0.034028	0.106661	0.176852	-0.002899	
-0.009003	0.150911	0.826581	-0.001678	
0.045930	0.169223	0.114290	0.000153	
0.104830	0.146944	-0.064851	0.002289	
0.012665	0.088655	0.178073	0.016937	
-0.180820	-0.052033	-0.124971	0.005035	
-0.291905	-0.174106	-0.184176	-0.022125	
-0.214084	-0.186313	-0.121309	-0.024261	
-0.129244	-0.105440	0.112459	-0.034944	
-0.123751	-0.100557	-0.050202	-0.019989	
-0.163730	-0.051118	0.038606	0.003204	
-0.183566	0.082551	0.122225	-0.003510	
-0.119173	0.013885	-0.039826	-0.015411	
-0.006866	-0.068208	0.151827	-0.019073	
0.039826	-0.081330	0.124971	-0.040437	
0.094149	-0.027924	0.143282	-0.013580	
0.153353	-0.012970	-0.100252	-0.010223	
0.132906	0.004120	-0.160678	-0.028229	
0.088349	0.023956	0.092011	-0.003204	
0.059358	0.033113	0.062409	0.011444	
0.014801	0.052644	-0.015411	-0.005035	
-0.027008	0.046235	0.275120	-0.005035	
-0.046540	0.042878	0.214694	-0.004120	
-0.005951	0.026703	0.030975	-0.010529	
0.019073	-0.000153	-0.068513	-0.004425	
-0.003815	-0.008392	-0.157626	-0.005646	
0.013275	0.026398	-0.283360	0.021210	
0.091096	0.045320	-0.636759	0.014191	
0.204928	0.085603	-0.496681	0.003204	
0.152132	0.160983	0.167087	0.002289	
-0.074616	0.175937	0.243076	0.002289	
-0.249485	0.187839	0.052339	-0.012054	
-0.091706	0.201571	-0.067597	-0.009308	
0.120089	0.089570	0.002289	-0.009003	
0.149080	-0.103609	-0.012970	-0.001678	
-0.025482	-0.163119	0.149996	-0.011444	
-0.206759	-0.247044	0.265659	-0.010529	
-0.255894	-0.522316	0.182345	-0.013275	
-0.172580	-0.570230	-0.124361	-0.022125	
-0.046235	-0.351110	-0.575112	-0.013275	
0.004120	-0.124361	-0.430457	0.005035	
0.136263	0.073091	-0.169833	-0.003204	
0.305028	0.222935	0.324254	-0.011749	
0.302892	0.334630	0.526588	-0.001678	
0.190890	0.312657	0.768291	-0.013580	
0.012665	0.320287	0.346228	-0.009003	
-0.188144	0.283360	-0.021820	-0.011749	
-0.432593	0.168612	0.072480	-0.004120	
-0.386206	-0.009308	0.348669	-0.011139	
-0.078584	-0.085908	0.328526	-0.017242	
-0.062104	-0.099337	0.231480	-0.015411	
-0.078279	-0.090486	0.025482	-0.002289	
0.045320	-0.055696	-0.108187	0.001678	
0.111238	-0.018158	-0.155794	-0.002289	
0.142366	-0.022125	-0.168002	-0.001984	
0.109102	0.016632	-0.302892	-0.005035	
0.043794	0.007172	-0.368200	-0.015106	
0.012970	0.009308	-0.237278	-0.011749	
0.000153	0.018463	-0.265049	-0.014496	
0.017853	0.016937	-0.242161	-0.017242	
0.060273	0.030365	-0.333714	-0.004425	
0.069428	0.019379	-0.114595	0.012665	
0.070344	-0.001068	0.175632	0.019989	
0.070649	-0.016937	0.209506	0.017242	
0.120394	-0.007172	0.189059	0.009308	
0.110323	0.000763	0.005035	-0.019073	
0.034028	0.044099	-0.027313	-0.019073	
-0.037080	0.056916	0.017242	-0.016632	
-0.081025	0.050813	-0.044404	-0.003510	
-0.138704	0.044404	-0.090791	-0.013580	
-0.145418	-0.016327	-0.094759	-0.015106	
-0.068208	-0.093232	0.004425	0.002899	
0.038301	-0.084687	0.403601	-0.007172	
0.052949	-0.070649	0.248569	-0.005646	
0.023651	-0.059358	-0.044099	-0.003510	
0.040742	-0.006256	-0.002289	0.000763	
-0.061494	0.097200	0.070039	-0.006866	
-0.183871	0.198825	0.189975	-0.007172	
-0.155794	0.163119	0.247044	-0.009613	
-0.028229	0.200961	0.074616	-0.002899	
-0.064240	0.080110	-0.298009	0.004730	
-0.154573	-0.114901	-0.261692	0.013275	
-0.123140	-0.296483	0.039521	-0.004425	
-0.006256	-0.336156	-0.157626	-0.019379	
0.086823	-0.336156	0.040132	-0.021515	
0.258335	-0.168307	0.009308	-0.024567	
0.389257	0.030975	0.013275	-0.015717	
0.400854	0.095369	-0.005341	0.012054	
0.157016	0.118258	0.005951	-0.013580	
-0.039826	0.123751	-0.064546	-0.029755	
-0.228428	0.111849	-0.024567	-0.005646	
-0.316319	0.097200	-0.029449	-0.016022	
-0.290074	0.115816	-0.113985	-0.007477	
-0.187839	0.041047	-0.038606	-0.007782	
0.066377	-0.048066	0.204318	-0.003510	
0.149080	-0.114595	0.132601	-0.000763	
-0.012360	-0.152437	0.249180	-0.005035	
-0.158542	-0.103609	0.077363	-0.009613	
-0.171969	-0.114595	-0.057527	-0.005035	
-0.122225	-0.092622	0.039216	-0.011749	
0.018158	-0.045014	-0.004425	0.002289	
0.161288	0.004730	0.002899	0.006256	
0.128939	0.111238	-0.047761	0.009003	
-0.007477	0.111238	-0.066987	-0.001373	
0.005951	0.056916	0.117037	-0.016327	
0.174716	0.144808	0.269627	-0.016327	
0.048982	0.115511	-0.004425	-0.004120	
-0.203403	0.054170	-0.092011	-0.009308	
-0.254368	0.087129	-0.060578	-0.007782	
-0.012054	0.088960	-0.017242	0.001678	
0.099031	0.128633	0.166171	0.009308	
-0.026093	0.100557	0.107882	0.017242	
-0.129244	-0.103304	0.066682	-0.005035	
-0.083467	-0.277256	0.094759	-0.013885	
0.131075	-0.253452	-0.276340	-0.019073	
0.158847	-0.131685	-0.213473	-0.013580	
0.095369	-0.043489	-0.320897	-0.004425	
0.150911	0.190280	-0.095064	-0.000763	
0.037690	0.226902	0.301671	0.002594	
-0.056306	0.115206	-0.043183	0.004120	
-0.065156	0.007782	-0.092927	0.013885	
-0.007477	0.016937	0.024261	0.016632	
-0.001068	0.034944	0.086823	-0.015717	
-0.014801	0.012970	0.264439	-0.033723	
-0.036469	0.004120	0.073701	-0.024567	
-0.016327	-0.022125	-0.029144	-0.029449	
-0.008087	-0.012360	-0.092927	-0.019379	
0.007782	-0.016937	-0.276646	-0.005951	
0.071870	-0.012970	-0.271152	-0.001984	
0.096895	-0.012970	0.162814	-0.012970	
0.095369	-0.041352	0.063020	-0.009003	
0.144808	-0.059052	-0.176242	0.002289	
0.233616	-0.026093	0.636454	-0.020294	
0.156711	0.022125	0.265659	-0.032807	
0.052339	0.130465	0.050508	-0.004425	
-0.039216	0.167087	0.035554	-0.003204	
-0.101778	0.128328	-0.106356	-0.013275	
-0.177768	0.074311	-0.021210	-0.011444	
-0.230564	-0.025787	0.169833	0.007172	
-0.368200	-0.111544	0.158237	-0.010529	
-0.415198	-0.130465	-0.045625	-0.032197	
-0.265659	-0.147860	-0.353857	-0.000763	
-0.094149	-0.114595	-0.183261	0.015106	
0.035249	0.005035	-0.225681	0.028534	
0.200351	0.090791	-0.011444	0.005951	
0.309300	0.033113	0.256504	-0.020599	
0.159457	-0.003510	0.315404	-0.012054	
0.158542	0.016632	-0.164950	0.000763	
0.078279	0.083161	-0.111544	-0.018463	
-0.046235	0.169223	-0.231480	-0.006866	
-0.090180	0.209201	-0.199435	-0.013885	
-0.110628	0.196078	-0.024567	-0.025482	
-0.122530	0.037080	0.238804	-0.015106	
0.012970	-0.162814	0.434730	0.009918	
0.056916	-0.330968	0.300145	-0.001984	
-0.041963	-0.341039	0.063630	-0.000763	
-0.121309	-0.234531	-0.343786	0.003815	
-0.074311	-0.121920	-0.376745	0.001678	
-0.007782	-0.112154	-0.261997	0.002289	
-0.011444	-0.138704	-0.095980	-0.002899	
0.028534	-0.022125	0.274204	0.001984	
0.072480	0.101473	0.178073	-0.013275	
0.080110	0.185702	0.125582	-0.009003	
0.062409	0.266575	-0.003204	-0.015717	
0.123140	0.229343	-0.116426	-0.007782	
0.227818	0.090486	0.123446	0.008087	
0.190585	-0.040132	0.220798	0.019989	
-0.091401	-0.117037	-0.310216	0.000763	
-0.241856	-0.072480	-0.108797	-0.009003	
-0.202487	-0.072175	0.315709	-0.004120	
-0.110323	0.003204	0.218356	0.006561	
-0.147554	0.131990	-0.100557	0.005341	
-0.113070	0.099031	-0.288243	0.013885	
-0.027618	0.027313	0.246433	0.011444	
0.028229	-0.004120	0.152742	-0.013275	
0.024872	-0.015106	-0.067903	-0.016022	
0.025177	0.000458	0.035249	-0.012970	
0.129549	0.040437	-0.001068	-0.007782	
0.356909	0.077363	-0.036775	-0.027618	
0.517738	0.139620	-0.019073	-0.014191	
0.355383	0.299535	-0.023956	-0.009613	
0.043794	0.534829	0.009918	0.001678	
-0.384375	0.399023	0.012360	0.016022	
-0.427100	0.034638	0.003204	0.006256	
-0.095369	-0.238499	-0.009003	-0.004425	
-0.015411	-0.513771	-0.001068	0.000153	
-0.069428	-0.650492	0.001984	-0.011444	
-0.249790	-0.554055	0.003204	-0.019989	
-0.283055	-0.352331	0.004425	-0.017853	
-0.219883	-0.152437	-0.004425	-0.021210	
-0.062104	-0.009918	-0.018158	-0.029449	
0.034333	0.109713	-0.029144	-0.018463	
0.027924	0.146029	-0.009613	0.004425	
0.034028	0.085298	-0.019989	-0.017853	
0.052644	0.092622	-0.040437	-0.010223	
0.056611	0.086213	-0.053559	-0.003510	
0.061189	0.105440	-0.062104	-0.001984	
0.048676	0.087739	-0.076447	-0.005035	
0.054170	0.086213	0.063325	0.016022	
0.099031	0.072175	0.176547	0.000763	
0.133516	0.068818	0.100863	0.004120	
0.081330	0.063630	0.107882	-0.001373	
0.072480	0.086823	0.234531	-0.002899	
0.047761	0.074311	0.203097	-0.016327	
0.046845	0.054170	-0.038606	-0.016327	
0.030670	0.028839	-0.167697	-0.014496	
-0.020294	0.007172	-0.201266	-0.013275	
-0.069734	-0.013580	-0.209506	-0.013580	
-0.077058	-0.014801	-0.190890	-0.005951	
-0.043489	-0.003815	0.212863	0.012970	
0.022125	0.007172	0.308080	-0.005646	
0.074006	0.015106	0.001678	-0.007477	
0.094759	0.014191	0.090791	0.002289	
0.095369	-0.013580	0.042573	0.002594	
0.060273	0.006256	0.006256	-0.011139	
-0.027008	0.048676	0.016022	-0.004120	
-0.071565	0.050813	0.062409	-0.016632	
-0.106050	0.040437	0.017242	-0.017242	
-0.074006	-0.021210	-0.117037	-0.017853	
0.044404	-0.074311	-0.006256	-0.015106	
0.070954	-0.107882	0.155794	-0.012054	
0.038606	-0.112764	0.060578	0.009918	
-0.028229	-0.053864	0.144808	0.001068	
-0.000763	-0.019073	0.027313	-0.009003	
0.119173	-0.043489	-0.122835	-0.000153	
0.130159	-0.057832	-0.155794	0.002289	
-0.023956	0.014191	-0.161899	0.003815	
-0.258945	0.130465	-0.413672	-0.015717	
-0.317235	0.120699	-0.467078	-0.007477	
-0.288854	0.088655	-0.098726	-0.002289	
-0.257420	0.022430	0.421607	-0.003204	
-0.180514	-0.030060	0.281835	-0.012054	
-0.104219	-0.062409	0.083467	-0.009003	
-0.081941	-0.048676	0.214084	-0.005951	
-0.008392	0.027313	0.021210	0.000763	
0.160068	0.090791	0.077973	-0.015717	
0.220798	0.149996	0.148470	-0.013580	
0.125582	0.099337	-0.017242	-0.018463	
0.094149	0.006561	-0.053864	-0.013275	
0.215304	-0.054475	0.071259	0.000763	
0.262913	-0.045930	-0.117342	-0.005035	
0.173190	-0.019989	-0.209506	-0.003204	
-0.037995	0.092927	0.054475	-0.000763	
-0.165561	0.157016	0.044404	-0.009918	
-0.166476	0.037995	-0.006866	-0.024261	
-0.144503	-0.163119	0.121614	-0.016022	
-0.202487	-0.290380	0.058442	-0.017853	
-0.252842	-0.335240	-0.005951	-0.010529	
-0.137484	-0.289159	-0.005646	-0.006256	
0.069123	-0.150301	-0.045930	0.006866	
0.051728	-0.061799	-0.001068	0.006561	
0.046845	0.023041	-0.169833	-0.000153	
0.093232	0.076447	-0.316930	-0.039826	
0.124361	0.109102	0.036469	-0.007172	
0.131075	0.068513	0.524757	-0.002899	
0.112764	0.072175	0.226902	-0.004120	
0.110628	0.065156	0.102388	-0.010223	
0.101168	0.056611	0.087739	-0.015717	
0.048982	0.063325	0.013275	-0.011444	
0.079804	0.059052	0.157626	0.003815	
0.100252	0.072785	-0.042573	0.005035	
-0.011139	0.080415	-0.071565	-0.016327	
-0.063630	0.089265	-0.034028	-0.007782	
-0.136263	0.071259	0.088960	-0.005951	
-0.127413	0.065461	0.075532	0.012360	
-0.070344	0.055390	-0.315099	0.030670	
-0.033723	0.076142	-0.237888	0.022430	
-0.012054	0.060578	-0.039216	-0.019073	
0.026398	0.030365	0.053254	-0.021515	
0.016937	0.003204	-0.160678	-0.019379	
0.007782	-0.023041	-0.196078	-0.004120	
-0.030365	-0.061799	-0.055696	-0.000153	
-0.054170	-0.068208	-0.020294	-0.005035	
-0.060578	-0.052339	-0.153353	-0.015106	
-0.061799	-0.038301	0.140230	-0.016327	
-0.043183	-0.035859	0.334020	-0.004425	
0.003204	-0.017548	0.047761	-0.001984	
0.005646	-0.013885	0.048371	-0.005035	
0.014801	0.002899	-0.014496	-0.010529	
0.062409	0.013275	-0.025482	-0.006866	
0.052339	0.001678	0.048676	-0.003204	
0.023041	0.004425	0.211947	0.006866	
-0.000153	-0.011139	0.236973	0.004425	
-0.032502	-0.015106	-0.013580	0.000763	
-0.087129	-0.012970	-0.179904	-0.015717	
-0.118258	0.021210	-0.142672	-0.012054	
-0.096590	0.043489	0.070954	-0.001984	
0.000763	0.061189	-0.231480	0.009003	
0.030060	0.057221	-0.003204	-0.003204	
0.055390	0.034028	-0.132296	-0.015106	
0.084077	-0.000763	-0.317540	-0.032197	
0.075837	-0.017242	-0.319676	-0.009613	
0.082551	-0.027008	-0.384069	0.003815	
0.116121	-0.031892	0.538186	-0.004425	
0.128633	-0.024872	0.790875	0.006256	
0.053864	-0.041352	0.346533	-0.000763	
-0.099947	-0.001373	0.215304	0.009918	
-0.192111	0.012970	-0.086518	0.010834	
-0.146029	-0.019989	-0.031892	-0.000763	
-0.077668	-0.080415	0.037080	-0.037995	
0.055085	-0.031587	-0.017548	-0.022430	
0.028839	0.034028	0.270542	-0.014496	
-0.023956	-0.012360	0.533608	-0.000763	
-0.027618	-0.019684	0.420997	-0.013580	
0.014801	-0.007782	0.027008	-0.017242	
0.042573	-0.000763	-0.395666	-0.009003	
-0.045320	0.026093	-0.522621	-0.007782	
-0.090486	0.080720	-0.467383	-0.023346	
-0.102694	0.164950	-0.497292	-0.031587	
-0.093232	0.229649	-0.303197	-0.005951	
0.010529	0.147249	0.438697	0.016327	
0.141146	0.045320	0.434730	0.012360	
0.026703	-0.009613	-0.029144	-0.013580	
-0.011749	-0.039826	0.222630	0.012054	
0.042573	-0.084077	0.243076	-0.000763	
0.030365	-0.066682	0.119783	0.004425	
-0.073091	-0.036164	0.016632	0.006866	
-0.064240	-0.017242	-0.177768	-0.007172	
0.076753	-0.085908	-0.576028	-0.043489	
0.142977	-0.160678	-0.517738	-0.015106	
0.039216	-0.202487	-0.349585	0.000153	
-0.063630	-0.191195	0.085603	0.008392	
-0.031587	-0.033113	0.213168	0.016937	
0.042573	0.042573	-0.035859	-0.001373	
0.046845	0.106661	-0.149080	-0.010223	
-0.038301	0.087739	0.025482	-0.003815	
-0.099947	0.077668	0.001678	0.002289	
-0.137178	0.017242	0.417335	-0.000153	
-0.101473	-0.033723	0.516212	0.009308	
-0.021820	-0.028534	0.012970	-0.033723	
0.051118	0.021210	0.028534	-0.039826	
0.059358	-0.019073	0.115206	0.002289	
0.076753	-0.016937	0.102388	0.009003	
0.048066	0.021210	0.019989	0.007172	
0.037995	0.031892	0.097200	0.008698	
-0.001373	0.027313	0.033113	-0.017853	
-0.035859	0.051118	-0.023346	-0.019684	
-0.066987	0.030670	-0.030060	-0.004120	
-0.105745	0.026398	-0.040742	0.002899	
-0.109713	0.033113	-0.002899	-0.001678	
-0.074311	0.032807	0.183871	-0.006256	
-0.040132	0.033113	0.160678	-0.002899	
-0.012054	0.028839	-0.044404	-0.009308	
0.009918	0.026093	-0.231785	-0.019684	
0.017853	0.033418	-0.368200	-0.021820	
0.086518	0.036775	0.204928	-0.013580	
0.123446	0.019989	-0.005646	-0.026398	
0.111238	0.029755	-0.492104	0.000763	
0.100863	0.046540	0.043489	0.010529	
0.075227	0.033418	0.340734	0.010223	
0.023651	0.019073	0.201877	0.001678	
-0.005646	0.037385	0.236362	-0.011444	
-0.056916	0.007172	0.001984	-0.016632	
-0.114595	-0.047456	0.079804	-0.005646	
-0.163730	-0.063935	-0.204013	-0.006256	
-0.166781	-0.094454	-0.283360	-0.019379	
-0.132296	-0.110018	-0.040742	-0.006866	
0.001984	-0.075837	0.178073	0.000153	
0.067903	-0.037690	-0.023651	-0.008087	
0.056611	-0.045320	-0.126497	-0.011749	
0.040742	-0.035249	-0.153048	-0.011749	
0.023041	-0.004120	0.198215	-0.011749	
0.035859	0.013275	0.342565	0.014191	
0.082856	0.040437	0.089265	-0.003510	
0.159152	0.080110	-0.017548	-0.020599	
0.196383	0.051118	-0.100557	-0.030060	
0.219578	0.069123	-0.110933	-0.006866	
0.278477	0.100252	-0.051423	-0.004120	
0.198825	0.081025	-0.020599	0.009003	
-0.096590	0.061189	-0.042573	-0.003510	
-0.334630	0.038301	-0.010223	-0.006256	
-0.445411	-0.048676	-0.007477	-0.007782	
-0.389868	-0.132906	-0.003815	-0.007782	
-0.185397	-0.129549	0.006256	-0.005035	
-0.070954	-0.057527	0.009308	-0.003204	
-0.040437	-0.022125	0.033418	-0.005035	
-0.031587	0.052033	0.036469	-0.004425	
0.030670	-0.009918	0.037690	0.004425	
0.086823	-0.043183	0.027924	-0.000763	
0.042878	-0.007782	0.003204	-0.001984	
0.094454	-0.009613	0.009918	-0.012970	
0.230869	0.001984	0.052339	-0.007477	
0.236973	0.002899	-0.064240	-0.002289	
0.144503	0.023346	0.001678	0.003815	
0.028534	0.077058	0.053254	-0.009613	
-0.048371	0.145723	-0.074616	-0.005646	
-0.111544	0.204318	-0.150911	-0.000763	
-0.108187	0.245518	-0.150606	0.005035	
0.009918	0.221714	-0.201266	0.003815	
-0.001678	0.109102	-0.021515	-0.002289	
-0.088349	-0.124666	0.419471	0.000763	
-0.137178	-0.363317	0.170138	-0.009918	
-0.132601	-0.495461	0.074616	-0.006866	
-0.136568	-0.379797	0.091706	-0.003204	
-0.178683	-0.160373	-0.001678	-0.012970	
-0.180820	-0.009613	-0.004425	-0.008087	
-0.088044	0.043489	0.002899	0.004120	
0.026703	0.068208	-0.033418	-0.005035	
0.106661	0.123446	-0.004425	0.002899	
0.107882	0.110323	-0.010223	-0.005341	
0.083161	0.090791	0.034944	0.010834	
0.134432	0.078889	0.005035	0.000153	
0.088655	0.135347	0.151522	-0.009003	
0.072480	0.127413	0.170138	-0.017242	
0.150606	0.071259	0.170138	-0.025787	
0.188449	0.003815	0.010529	-0.030670	
0.131380	-0.040132	-0.292821	-0.022430	
0.090486	-0.051728	-0.093232	-0.005646	
0.052949	0.022125	-0.030060	0.006561	
0.005951	0.030670	0.149385	-0.000153	
-0.087129	0.026703	0.159762	-0.024261	
-0.141756	0.046540	-0.005341	-0.011444	
-0.147860	0.034028	-0.078584	-0.022125	
-0.166171	0.054170	-0.152437	-0.019684	
-0.204623	0.047151	-0.271152	-0.016327	
-0.170444	-0.005035	0.139315	-0.026398	
-0.112459	-0.100252	0.285192	-0.027924	
-0.072175	-0.163119	0.098116	-0.006256	
-0.026398	-0.163730	-0.011139	-0.008392	
0.018158	-0.094759	-0.165561	0.012360	
0.023956	-0.012054	-0.153963	0.018463	
0.086213	0.014496	0.268711	0.002594	
0.167392	0.056611	0.040132	-0.025177	
0.176242	0.109407	0.048371	-0.019684	
0.190585	0.159762	0.075837	0.015106	
0.188144	0.171664	-0.081635	0.002594	
0.122530	0.131685	-0.405127	-0.005035	
-0.003510	0.130465	-0.069123	0.002899	
-0.155794	0.138704	0.571755	0.001678	
-0.235447	0.049897	-0.069734	0.008392	
-0.291905	-0.064546	0.146334	0.007172	
-0.183261	-0.194247	-0.129549	-0.009003	
0.009613	-0.194552	-0.277866	-0.006866	
0.092622	-0.158237	-0.213778	-0.019989	
0.101168	-0.142366	0.075837	-0.006866	
0.086823	-0.122835	0.005341	-0.007782	
0.046540	-0.104219	-0.220188	-0.003510	
-0.012360	-0.056611	-0.198825	0.003815	
-0.013580	0.000153	0.191806	0.005341	
0.056306	0.080720	0.414588	-0.005035	
0.100252	0.095675	0.127718	-0.022125	
0.014801	0.070649	0.102083	-0.010529	
-0.077973	0.095064	0.019379	-0.004425	
-0.107882	0.060273	-0.146944	0.005035	
-0.109407	0.055085	-0.046540	0.012665	
-0.053864	0.139009	0.217135	0.001068	
-0.015106	0.109407	0.037080	-0.017853	
0.007782	0.040437	0.273594	-0.026093	
-0.005341	-0.017548	0.012054	-0.027313	
-0.008087	-0.075227	-0.084992	-0.009918	
-0.020294	-0.130159	0.018768	-0.001678	
0.032807	-0.089265	-0.036469	0.002594	
0.104830	-0.025787	-0.141146	-0.010529	
0.088655	0.026398	0.102388	-0.000763	
0.049287	0.082246	0.058747	-0.004120	
0.030670	0.073396	-0.118563	-0.012054	
0.081025	0.012970	0.009308	-0.004120	
0.125277	-0.029449	0.028839	0.006866	
0.045014	-0.030060	-0.063630	-0.007782	
-0.019073	0.001678	-0.023346	-0.027618	
-0.028229	-0.003815	-0.078279	-0.000763	
0.014801	0.002594	-0.197909	0.000153	
0.019684	0.034944	-0.137484	0.004120	
-0.079499	0.038606	-0.034638	0.014191	
-0.134432	-0.042268	-0.070649	0.014801	
-0.149996	-0.120699	-0.061494	0.023346	
-0.134127	-0.052033	0.039216	0.029755	
-0.000153	0.049287	0.039216	0.008698	
0.066377	0.053254	0.168612	-0.034944	
0.007172	0.131685	0.295568	-0.039826	
0.085298	0.102694	-0.010223	-0.044709	
-0.032502	-0.027924	-0.349279	-0.031281	
-0.131685	-0.164035	-0.258640	-0.016632	
-0.063630	-0.190890	-0.154879	-0.023651	
0.046845	-0.176242	0.077973	-0.019379	
0.016937	-0.128939	0.812543	-0.023651	
-0.310826	-0.039521	0.309300	-0.014191	
-0.471657	-0.002899	0.444800	-0.005341	
-0.182040	0.020905	0.041047	0.002899	
0.212253	0.011139	-0.320287	0.010834	
0.301366	0.091096	-0.056916	0.009918	
0.251011	0.197299	-0.118258	0.008087	
0.088349	0.168612	0.036164	-0.003510	
-0.087434	0.205844	0.097811	0.018768	
-0.158542	0.143587	-0.204318	0.001068	
-0.088349	0.058442	-0.217441	-0.001678	
0.029755	-0.027313	-0.173495	-0.018158	
0.000763	-0.082856	-0.165866	-0.021515	
-0.044099	-0.107882	0.009308	-0.015717	
0.009003	-0.076753	0.441443	-0.016022	
0.054475	-0.017853	0.269016	-0.010223	
0.044404	0.034028	0.153353	-0.003815	
0.017853	0.086518	0.192721	0.002594	
0.014191	-0.002899	0.041657	0.023346	
0.034944	-0.028534	-0.207980	0.028839	
0.084992	0.004730	-0.355383	-0.017853	
0.189670	-0.016327	-0.340734	-0.031281	
0.225071	0.057527	-0.147249	-0.009308	
0.171664	0.148775	0.321507	-0.013275	
0.078889	0.175632	0.260471	-0.027924	
0.008392	0.147554	-0.043183	0.029449	
0.029755	0.065156	0.166171	0.020905	
0.004120	-0.078584	-0.151217	-0.000763	
-0.141756	-0.227512	-0.463721	-0.018463	
-0.279087	-0.198825	-0.142672	-0.015411	
-0.272678	-0.192721	0.101168	0.005951	
-0.095980	-0.140535	0.214084	0.009003	
0.110628	-0.040437	0.065156	-0.002899	
0.112154	0.042573	-0.126802	0.002289	
-0.020294	0.084077	-0.153658	0.000763	
-0.072175	0.041352	-0.019684	-0.018158	
-0.110323	-0.075837	0.228428	-0.019073	
-0.099947	-0.136568	0.188449	-0.007477	
-0.058442	0.014801	0.114290	-0.003204	
0.052033	0.020905	0.116426	-0.012970	
0.086518	0.036469	0.049287	0.009308	
0.027924	0.058442	-0.016327	0.002594	
-0.017242	0.081330	-0.049592	-0.009918	
-0.053864	0.106356	-0.088349	-0.021210	
-0.049897	0.123140	-0.083161	-0.012054	
-0.036164	0.068208	-0.027618	-0.019989	
-0.023346	0.026093	-0.072480	-0.006866	
-0.026093	-0.052339	-0.176852	0.002289	
-0.020905	-0.124971	-0.124971	-0.001373	
-0.016022	-0.085298	0.013885	-0.007782	
-0.005646	-0.003510	0.417335	-0.012970	
0.012665	0.017853	0.286107	-0.013580	
0.039826	0.012360	0.262913	-0.011444	
0.110018	0.016937	0.146334	-0.006256	
0.218967	0.016022	0.119173	-0.009918	
0.243076	0.024567	0.242771	-0.002899	
0.149080	0.030060	0.119783	-0.013885	
0.077363	0.064851	-0.124361	-0.003510	
-0.068208	0.103609	-0.390173	-0.002289	
-0.190585	0.123751	-0.222630	0.014191	
-0.210727	0.133821	0.134432	0.015106	
-0.201266	0.077668	-0.175937	0.005951	
-0.117952	-0.061189	-0.156711	-0.009613	
-0.005035	-0.142061	-0.006866	-0.017853	
0.005646	-0.176852	-0.056001	-0.027618	
-0.003815	-0.128023	-0.049287	-0.002899	
-0.052033	-0.089875	-0.124361	-0.008087	
-0.053864	-0.094149	-0.189670	-0.017853	
-0.001984	-0.033113	0.265659	0.001068	
0.072480	-0.019989	0.110323	-0.012970	
0.058137	-0.021515	0.050813	-0.026093	
0.020599	-0.017548	-0.019073	-0.018463	
0.074006	0.018158	-0.080720	-0.005035	
0.144503	0.021820	-0.143587	-0.022125	
0.266880	0.051423	-0.082551	-0.013580	
0.156099	0.123140	-0.007477	-0.017853	
-0.027924	0.131990	-0.023041	0.006866	
-0.263828	0.036775	0.243076	0.006561	
-0.401464	0.065156	0.431373	0.000153	
-0.114595	0.048066	-0.050202	-0.008392	
0.107271	-0.034028	-0.027618	-0.008392	
-0.095369	-0.114595	-0.028534	-0.007477	
-0.334935	-0.157016	-0.073701	-0.009003	
-0.156711	-0.166781	0.083772	-0.001678	
0.111238	-0.067903	0.422523	-0.006256	
0.219273	0.105440	0.435340	-0.017242	
0.169528	0.181735	0.254673	-0.001373	
0.016327	0.112459	0.084992	0.011139	
0.033723	0.085603	-0.169223	-0.004425	
0.108187	0.190280	-0.356909	0.000153	
0.106966	0.205844	-0.411841	-0.004120	
0.044709	0.090791	-0.283055	0.001068	
-0.041047	-0.011139	-0.237583	-0.004120	
-0.040132	-0.088655	-0.120394	-0.003510	
0.102999	-0.148775	-0.049287	-0.011749	
0.214694	-0.139620	0.003204	-0.004425	
0.199435	-0.092317	0.040437	0.001068	
0.121309	-0.021210	-0.026093	0.000763	
0.021210	0.072480	0.120394	-0.011749	
-0.034333	0.101168	-0.005646	-0.017548	
-0.157626	0.044709	-0.197604	-0.015717	
-0.190585	-0.024261	-0.049592	-0.010223	
-0.244602	-0.092011	-0.182956	-0.021515	
-0.306249	-0.121614	-0.397802	-0.019989	
-0.212558	-0.074006	-0.033418	0.012360	
-0.084382	0.004730	0.760357	-0.000763	
0.053864	0.038911	0.289464	0.001984	
0.206454	0.040742	0.302281	0.028839	
0.251316	0.069123	0.222630	0.020294	
0.137484	0.156099	0.088960	0.000458	
0.023651	0.212253	-0.064546	0.002594	
-0.060273	0.207370	0.031281	-0.007172	
-0.110628	0.128939	-0.115206	-0.040132	
-0.175937	-0.057221	-0.043489	-0.013580	
-0.282445	-0.297704	0.340123	0.009308	
-0.280918	-0.424048	0.436866	-0.001984	
-0.163730	-0.369421	0.075227	-0.011444	
-0.061494	-0.272984	0.042573	-0.015717	
0.004425	-0.036469	0.002289	-0.014191	
0.049287	0.080415	-0.131685	-0.019379	
0.060884	0.070954	-0.195773	-0.006256	
0.098116	0.129854	0.230564	0.009308	
0.092011	0.078889	0.010529	0.006561	
0.130770	0.075532	-0.121614	0.000153	
0.145113	0.082246	-0.124056	-0.019379	
0.142977	0.082551	-0.199740	-0.026398	
0.110628	0.087739	-0.146639	-0.006256	
0.098421	0.084687	-0.101168	-0.004120	
0.038301	0.065156	-0.105440	-0.019989	
-0.068513	0.057527	-0.162509	-0.006256	
-0.149385	0.058747	-0.227512	-0.012054	
-0.101473	0.062409	-0.261997	-0.003510	
-0.002899	0.036469	-0.130465	0.006256	
0.072480	0.017242	0.287023	0.001984	
0.109407	-0.023346	0.249180	-0.009003	
0.104830	-0.074006	0.185702	-0.003204	
0.077973	-0.121004	-0.034028	0.002899	
0.039216	-0.080110	-0.070344	0.001678	
0.028534	-0.024261	-0.033113	-0.005035	
-0.005341	-0.018158	0.095980	-0.017853	
-0.040437	0.009003	0.193027	-0.001373	
-0.071565	0.023041	-0.265049	-0.003510	
-0.021210	0.037995	-0.084382	-0.002899	
0.030060	0.028839	0.446631	-0.006256	
-0.001068	0.020294	0.363928	-0.003204	
-0.026398	0.066987	0.025482	-0.003510	
0.088349	0.158847	-0.061494	0.012970	
0.158847	0.257420	-0.077058	0.012360	
0.220188	0.217441	0.050508	0.016022	
0.249485	0.071259	0.008698	0.005341	
0.022125	-0.096590	0.030060	0.009003	
-0.399939	-0.256504	-0.261692	-0.014496	
-0.646524	-0.300450	-0.506447	-0.044404	
-0.533608	-0.301976	-0.222324	-0.018463	
-0.321813	-0.225071	0.358740	-0.013580	
-0.028229	-0.092317	0.417335	-0.024567	
0.196994	0.084992	0.223545	-0.019684	
0.160983	0.159762	0.185702	-0.008392	
0.018158	0.062104	0.079499	-0.015106	
0.013885	0.004120	-0.023651	-0.005035	
0.039216	-0.011444	-0.155794	-0.013580	
0.074311	-0.001068	-0.253757	-0.004425	
0.127108	0.033418	-0.289159	-0.011749	
0.146639	0.037995	-0.100863	-0.005646	
0.152132	0.045930	0.305028	-0.004425	
0.161288	0.054780	0.030975	0.004425	
0.226597	0.041963	-0.093843	0.010834	
0.155489	0.046235	-0.112154	-0.001678	
0.094149	0.052033	0.352331	0.008087	
-0.023346	0.087739	0.459144	0.001068	
-0.231785	0.092317	0.152437	-0.003510	
-0.378881	0.089570	0.018463	-0.003815	
-0.195468	0.142672	-0.148775	-0.015411	
-0.148470	0.150606	-0.127413	-0.021820	
-0.186313	0.087129	-0.009003	-0.003204	
-0.108187	0.027008	0.078889	-0.000763	
-0.012360	-0.033113	0.060273	0.005035	
0.016327	-0.139620	-0.237583	-0.003815	
0.039216	-0.252537	-0.237583	-0.008087	
0.006256	-0.199435	-0.278172	-0.012054	
-0.005341	-0.103609	-0.509804	-0.011749	
0.050202	-0.150606	-0.253757	-0.009003	
0.048066	-0.085908	0.143587	-0.007172	
-0.027008	-0.072480	0.323339	-0.009918	
-0.011749	-0.073396	0.323949	-0.011749	
0.030060	-0.019379	0.125887	-0.016632	
0.064851	0.016022	-0.033113	-0.010223	
0.075837	0.043489	-0.027008	-0.000763	
0.062409	0.054475	-0.023346	-0.004425	
0.063935	0.056306	0.204623	-0.001678	
0.058747	0.059052	0.148470	0.003204	
0.045320	0.052644	0.041657	0.003815	
0.042878	0.036469	0.074922	-0.008087	
0.033723	0.029144	0.031281	-0.003510	
0.016632	0.021820	0.016632	-0.013885	
0.019684	0.033113	0.016937	0.000458	
0.012665	0.020294	0.005341	-0.008392	
0.023651	0.012665	0.005341	-0.003204	
0.020905	0.010529	-0.001678	-0.005035	
0.000458	0.016327	-0.006866	-0.001678	
-0.023956	0.009003	-0.015411	-0.007172	
-0.015717	0.018768	-0.020599	-0.003815	
-0.051728	0.051118	-0.021210	-0.005646	
-0.114290	0.089570	-0.025787	-0.013275	
-0.120394	0.105135	-0.001678	-0.012360	
-0.061494	0.062409	0.008392	-0.010529	
-0.016937	0.024872	-0.016327	-0.001678	
-0.008087	-0.006256	-0.074006	-0.011444	
0.055085	-0.039521	-0.090791	-0.000153	
0.131075	-0.081941	-0.006866	0.002594	
0.162509	-0.045014	0.202487	0.003815	
0.066377	0.076753	0.110323	-0.005341	
-0.048371	0.246128	0.097506	0.004120	
-0.043183	0.217441	0.036775	-0.000153	
-0.018158	0.143282	-0.115206	-0.011444	
-0.044404	-0.001373	-0.050508	-0.029449	
-0.075227	-0.202487	0.075227	-0.013275	
-0.084077	-0.446631	0.028534	-0.002899	
-0.094454	-0.503090	-0.008392	0.001678	
-0.101168	-0.326085	-0.011749	0.008087	
-0.059663	-0.123751	0.009308	-0.005646	
-0.021210	0.041963	0.157321	-0.008392	
0.019073	0.143282	-0.004425	-0.011444	
0.100863	0.184787	-0.125277	-0.014496	
0.134737	0.193637	0.032197	-0.017242	
0.027924	0.128633	0.047761	-0.005951	
-0.052033	0.063630	0.047761	-0.002899	
-0.028839	0.020599	-0.302892	0.003815	
-0.013885	0.000153	-0.577859	-0.020599	
-0.032197	0.027008	-0.524757	0.005035	
-0.054475	0.020599	0.491188	0.016022	
-0.058442	0.004120	0.473183	-0.007172	
-0.065156	0.023956	-0.189975	-0.026398	
-0.067292	0.056306	0.025482	-0.023346	
-0.063630	0.068818	0.255589	-0.013580	
-0.074311	0.075532	0.183871	0.000763	
-0.001984	0.020599	0.061799	0.013885	
0.113070	0.034944	0.315099	0.002594	
0.235142	0.124666	0.272984	-0.019684	
0.254368	0.111238	0.053559	-0.022430	
0.108492	0.034333	0.162204	-0.018463	
-0.100252	-0.032502	0.157931	-0.012054	
-0.031281	-0.045320	-0.009918	0.005035	
0.097200	-0.031281	-0.331578	-0.012054	
0.078584	0.025177	-0.067903	0.002899	
-0.011139	0.065461	-0.007477	-0.005341	
-0.071565	0.030670	-0.287023	-0.005341	
-0.207675	-0.052339	-0.153048	-0.005035	
-0.166171	-0.140841	-0.067903	0.004120	
-0.101778	-0.231480	0.144808	0.010223	
-0.136568	-0.226292	-0.020599	0.003815	
-0.167392	-0.110018	-0.116732	-0.006866	
-0.071259	-0.070039	-0.092927	-0.004120	
-0.009003	-0.045014	-0.149385	-0.009918	
0.007782	0.045320	0.083467	-0.015717	
0.029755	0.097811	0.200961	-0.002899	
0.022430	0.094454	0.201877	-0.017548	
0.054780	0.047151	0.234837	-0.004425	
0.137484	0.031892	0.220188	0.012360	
0.196383	0.022736	-0.027008	-0.000763	
0.154879	0.006561	-0.323033	-0.016632	
0.125582	0.016327	-0.442664	0.005341	
0.068208	0.047456	-0.076753	0.014191	
0.007782	0.094759	-0.009308	0.006256	
-0.042878	0.091401	-0.037385	-0.005951	
-0.077058	0.082856	0.412757	0.007172	
-0.119783	0.056916	0.131685	-0.005951	
-0.160373	0.034944	0.028229	-0.009918	
-0.140230	-0.012970	0.095064	-0.019989	
-0.068513	-0.104830	-0.014496	-0.019379	
-0.030975	-0.112154	-0.058747	-0.001678	
0.026093	0.000153	-0.242161	-0.005646	
0.079804	0.028839	-0.361181	-0.023651	
0.067292	-0.013580	-0.388037	-0.022430	
0.048676	-0.027008	0.081635	-0.004120	
0.027313	-0.009003	0.101168	-0.013580	
0.023956	-0.035554	-0.155489	-0.019989	
0.011749	-0.068208	0.228428	-0.011444	
0.008698	-0.034028	0.477150	-0.005035	
0.014191	-0.006866	0.035554	-0.007172	
0.003815	0.015106	-0.082551	-0.006256	
-0.007782	0.039216	0.235752	-0.005035	
0.013275	0.036469	0.237583	-0.008087	
0.022125	0.017242	-0.045930	-0.020599	
0.028839	0.028839	0.101473	-0.021210	
0.034638	0.014191	0.173800	-0.009918	
0.058442	0.012360	0.346533	0.001068	
0.048982	0.001984	0.267796	-0.008392	
0.026398	-0.014801	0.070039	-0.015106	
-0.041047	-0.011139	0.011139	-0.012054	
-0.136263	0.003204	-0.244602	0.000458	
-0.139315	0.073396	-0.392004	0.006256	
-0.065766	0.137178	-0.268406	-0.005646	
0.032807	0.204013	-0.277866	0.006866	
0.010529	0.229649	-0.005646	0.011139	
-0.077058	0.133211	0.347448	0.009918	
-0.043489	-0.038301	0.275730	-0.000153	
-0.043794	-0.139925	0.008087	-0.008087	
-0.107576	-0.288548	0.040437	-0.024261	
-0.066072	-0.383154	0.060273	-0.006866	
-0.003815	-0.282445	-0.065461	0.000763	
0.006866	-0.067903	-0.115206	0.005951	
0.031281	-0.040437	-0.093843	-0.013275	
0.020599	-0.012970	-0.151522	-0.025177	
0.001984	0.102388	-0.120089	-0.011139	
0.063935	0.138399	-0.049592	0.019989	
0.080415	0.136873	-0.116732	0.010223	
0.045930	0.115511	-0.293126	-0.037995	
-0.045014	0.141756	-0.215304	-0.031281	
-0.041047	0.166781	-0.052033	-0.013580	
0.085298	0.094759	0.332494	0.000763	
0.098421	-0.029449	0.090791	-0.005951	
0.103914	-0.086823	0.080720	-0.014496	
-0.005341	-0.120394	0.212863	-0.019379	
-0.084382	-0.167697	0.350500	-0.009613	
-0.144197	-0.204318	0.027008	-0.012054	
-0.144197	-0.142977	-0.057832	0.001068	
-0.106050	-0.016327	-0.133516	-0.000763	
-0.071259	0.110933	-0.055390	-0.001678	
-0.046540	0.087739	0.024872	0.001678	
-0.016022	0.058442	-0.016022	0.002289	
0.023651	0.063630	-0.066682	-0.005646	
-0.035554	0.063325	-0.070344	-0.007782	
-0.101778	0.060578	-0.134737	-0.001678	
-0.045625	0.048066	-0.037690	0.008087	
0.086213	0.042268	0.532083	0.020905	
0.229343	0.032197	0.187228	0.011444	
0.242466	0.037080	-0.039826	0.003815	
0.172885	0.022125	-0.005035	-0.009003	
0.104525	0.037385	0.060578	-0.003204	
0.087129	0.028839	0.054475	-0.010223	
0.048982	0.047456	-0.036775	-0.010223	
-0.079194	0.069123	-0.386511	-0.005035	
-0.120089	0.066682	-0.389868	0.006561	
-0.156099	0.029144	0.083161	0.003815	
-0.173495	-0.025787	-0.014496	-0.000153	
-0.159457	-0.096285	-0.163730	-0.011749	
-0.037690	-0.153658	0.030670	-0.005646	
0.030060	-0.101778	0.418555	0.003204	
0.001984	-0.028229	0.513466	0.003204	
-0.037690	0.004730	0.232090	-0.023651	
-0.059358	0.002899	0.137789	-0.030365	
-0.053559	-0.002899	0.211947	-0.004425	
-0.037690	0.008087	0.189670	-0.004120	
-0.022430	0.033113	0.139620	-0.004425	
0.011139	0.012970	-0.090791	-0.009308	
0.044099	-0.028534	-0.267185	0.000153	
0.038606	-0.019684	-0.300756	-0.005951	
0.048066	-0.019684	-0.174716	0.001068	
0.046235	-0.012054	-0.143282	-0.011444	
0.027924	0.044709	-0.048371	-0.008392	
-0.018158	0.044099	0.024567	-0.003510	
-0.041047	0.013885	0.068818	-0.007477	
-0.003510	-0.004120	-0.013275	-0.008392	
0.048371	0.003204	0.015411	-0.010529	
0.091096	-0.006866	-0.069123	-0.012054	
0.106966	-0.007477	-0.099337	-0.012054	
0.104830	0.000763	-0.051728	0.008087	
0.125582	0.010834	-0.056306	-0.003204	
0.086213	0.050202	-0.143282	-0.002899	
-0.008087	0.074922	-0.075837	-0.011444	
-0.058442	0.097506	0.118258	-0.005035	
-0.130465	0.090791	-0.045625	-0.014191	
-0.191501	0.035249	-0.050508	-0.015106	
-0.184482	-0.057221	-0.023346	-0.017242	
-0.128023	-0.031892	-0.001678	-0.013580	
-0.080110	0.011139	-0.045930	-0.012360	
-0.021210	-0.014191	0.009918	0.000458	
-0.002289	-0.110323	0.109102	-0.005035	
0.029755	-0.178378	-0.048371	-0.013580	
0.006561	-0.156099	-0.027618	-0.011139	
0.052339	-0.096895	0.093537	-0.011139	
0.069123	-0.009918	0.381323	-0.007477	
0.061189	0.087739	0.080720	-0.011139	
0.081941	0.167087	-0.012360	-0.006256	
0.121004	0.144503	-0.070039	-0.004120	
0.138399	0.095064	-0.135347	-0.000763	
0.183261	0.042573	-0.086518	-0.001678	
0.135042	0.014801	0.362402	0.006256	
0.070954	0.039826	0.270847	-0.010529	
0.075837	0.066072	-0.007477	0.002899	
-0.024872	0.023956	0.162204	0.007172	
-0.180209	-0.025787	-0.215915	-0.005035	
-0.296788	-0.088655	-0.040437	-0.013275	
-0.290074	-0.274815	0.212558	0.020599	
-0.252232	-0.373999	-0.240330	0.013885	
-0.294347	-0.222630	-0.189670	-0.002899	
-0.224766	-0.035859	0.099031	-0.026703	
-0.020294	0.125582	0.306554	-0.027313	
0.081025	0.197604	0.147249	-0.014191	
0.168307	0.146639	-0.114901	-0.001984	
0.182345	0.046845	-0.070344	0.000763	
0.151522	0.033418	-0.032502	0.004120	
0.087129	0.054475	-0.248875	0.003815	
0.061799	0.058137	-0.139009	-0.009613	
0.046540	0.075227	-0.035859	-0.011139	
-0.021820	0.091401	0.263828	-0.017853	
-0.069123	0.110323	0.565042	0.009918	
-0.084077	0.070649	0.232090	-0.014191	
-0.063935	0.046235	-0.198215	-0.044099	
0.014801	0.011749	-0.419471	-0.013275	
0.012665	0.033418	-0.022430	-0.017242	
0.001984	0.060884	0.007782	-0.000153	
0.021820	0.020294	-0.205539	0.011444	
0.076142	-0.052033	-0.193637	0.003204	
0.004730	-0.098421	0.057527	0.001678	
-0.036469	-0.044099	0.222630	0.004425	
0.041963	-0.019379	-0.049287	-0.009308	
0.140230	0.012360	0.115206	-0.008392	
0.121004	0.054780	-0.086518	0.005951	
0.027008	0.052033	-0.084077	0.008698	
-0.135958	-0.017853	0.017242	-0.037995	
-0.215610	-0.093537	0.084687	-0.023956	
-0.166476	-0.144503	-0.098726	-0.002899	
-0.057527	-0.137484	-0.207675	0.009003	
0.011139	-0.064546	-0.017548	-0.000153	
0.013275	0.035859	0.042268	0.002289	
-0.025482	0.009918	-0.296178	-0.022125	
-0.023956	0.014801	0.180209	-0.008392	
0.020294	0.006561	0.549478	-0.009918	
0.070039	0.027924	0.445716	0.008698	
0.092317	0.019989	0.335851	0.029449	
0.105440	0.002899	-0.145418	0.000153	
0.100252	0.008698	-0.266575	-0.031892	
0.064546	0.018158	-0.197299	-0.024567	
0.039216	0.017853	0.123140	-0.011444	
0.057221	0.028839	0.474098	-0.009918	
0.045014	0.048676	0.070039	-0.010529	
-0.056001	0.050202	-0.119478	-0.009003	
-0.170138	0.026703	0.023041	0.012665	
-0.204928	-0.019684	-0.045625	0.017548	
-0.107882	-0.029449	0.015411	0.018158	
0.008087	-0.006256	-0.212253	0.004425	
0.082856	0.029144	-0.321507	0.000763	
0.064546	0.040742	-0.155184	-0.015717	
0.024567	0.045320	-0.162509	0.006561	
0.014191	0.029755	-0.071870	-0.005951	
-0.006866	0.039826	-0.019989	-0.037690	
-0.013580	0.005035	0.015411	-0.033418	
0.058442	-0.049287	0.188449	-0.031892	
0.115206	-0.069734	0.311437	-0.013275	
0.057832	-0.040132	0.147249	-0.011139	
0.010834	0.040437	-0.159457	-0.018158	
-0.040437	0.072175	-0.477150	-0.013275	
-0.059968	0.144503	-0.305638	0.006866	
-0.083161	0.195163	-0.059968	-0.015717	
-0.152742	0.148775	-0.094454	-0.019379	
-0.261082	0.042268	-0.078279	-0.017548	
-0.277561	-0.067597	0.164340	-0.006256	
-0.141451	-0.174106	0.028534	-0.003510	
0.023956	-0.295873	0.177157	0.004120	
0.082551	-0.331883	-0.225376	-0.013275	
0.092927	-0.225071	-0.364233	-0.005951	
0.057832	-0.088044	-0.009308	-0.001678	
-0.005951	0.046235	0.267490	0.001984	
-0.035554	0.077058	0.328526	-0.007172	
0.115511	0.057221	0.540933	-0.004425	
0.199130	0.034028	0.602274	0.008698	
0.065766	-0.019073	0.177157	0.020905	
-0.053559	-0.033723	0.109713	0.016937	
-0.059358	-0.061189	-0.037690	0.002289	
0.030365	-0.059663	-0.184176	0.003815	
-0.019379	0.070649	-0.009918	-0.009308	
-0.029144	0.143587	0.157321	-0.012054	
0.091401	0.071259	0.152132	-0.017853	
0.214694	0.103304	0.058747	-0.001984	
0.161593	0.114595	-0.052644	-0.008392	
0.003204	0.192111	-0.096590	-0.006256	
0.001068	0.233921	0.061799	-0.009003	
-0.056001	0.221104	0.096895	-0.007172	
-0.178073	0.151217	0.178683	0.002594	
-0.216220	-0.032197	0.196383	0.000458	
-0.163730	-0.182345	-0.031892	-0.000153	
-0.075837	-0.222019	-0.275730	-0.001678	
-0.011749	-0.215915	-0.312963	-0.009003	
-0.005341	-0.202182	-0.319371	-0.027924	
-0.020294	-0.127718	-0.235752	-0.019989	
0.024567	-0.055390	-0.050508	-0.016022	
0.062409	0.056001	0.004425	-0.011749	
0.037080	0.087129	-0.057832	-0.024261	
0.019684	0.072480	-0.021210	-0.013885	
0.100557	0.044709	-0.019684	-0.007172	
0.137178	0.060578	-0.077058	0.005035	
0.094759	0.088349	-0.174106	0.000153	
0.026093	0.072785	-0.165561	-0.001984	
-0.106661	0.025177	-0.043794	-0.005341	
-0.223850	-0.030975	-0.054170	-0.012054	
-0.229649	-0.075227	-0.007477	-0.017242	
-0.010834	-0.069734	0.259251	-0.009613	
0.131075	-0.015411	0.099031	-0.005646	
0.134737	0.034638	0.342565	-0.009308	
0.099947	0.037385	0.259251	-0.003510	
0.066682	0.037385	0.055696	-0.010529	
0.087434	0.046235	0.145418	-0.009308	
0.116121	0.059358	0.125887	0.000763	
0.209201	0.072480	-0.321202	0.006561	
0.106050	0.048066	-0.290685	-0.003510	
-0.027008	0.033113	0.016327	0.001678	
-0.073701	0.008698	0.262608	-0.005646	
-0.135347	0.008392	0.227207	-0.000763	
-0.152742	0.007782	-0.006256	-0.010529	
-0.106661	-0.003204	-0.084687	-0.017242	
-0.131990	-0.035249	-0.103914	-0.011444	
-0.148775	0.000763	-0.078889	-0.001984	
-0.113375	-0.009003	-0.041963	0.001678	
-0.016022	-0.066682	-0.157626	-0.001373	
0.055390	-0.048371	-0.274815	0.002594	
0.065766	-0.067903	-0.178073	-0.002899	
0.044709	-0.077668	0.242771	-0.003815	
0.007172	-0.043489	0.356909	-0.017853	
-0.008087	-0.032197	0.400549	-0.019073	
-0.022430	0.002594	0.487526	-0.005035	
-0.033723	0.050508	0.138094	0.005341	
-0.071870	0.018768	-0.235447	-0.014191	
-0.068513	-0.005646	-0.312963	0.002289	
-0.107271	-0.000763	-0.064851	-0.003510	
-0.128328	-0.031892	-0.094759	-0.017548	
-0.073701	-0.121614	-0.283360	-0.027924	
0.045320	-0.061494	-0.322423	-0.009003	
0.089875	0.004425	-0.035859	0.003204	
0.080110	0.022430	0.312352	0.008087	
0.115206	0.041047	0.598612	0.001068	
0.122835	0.037995	0.204623	0.011444	
0.106966	0.027924	-0.070039	-0.006866	
0.086518	0.015717	-0.190890	-0.017853	
0.078584	0.021210	-0.255894	0.008698	
0.047151	0.027924	0.014801	0.012360	
-0.017853	0.066377	0.270542	0.000153	
-0.069123	0.081025	0.156404	-0.011139	
-0.081941	0.058137	0.056306	-0.004120	
-0.060273	0.036164	-0.153658	0.002289	
-0.074311	0.043183	-0.239719	-0.009918	
-0.117952	0.040742	-0.331273	-0.010223	
-0.088349	0.007172	-0.460975	0.015411	
-0.019073	-0.051423	-0.305333	-0.013275	
0.039216	-0.037690	0.306554	-0.009003	
0.044404	0.006561	0.152132	-0.007172	
0.047151	0.040437	0.262913	-0.006866	
0.003815	0.036775	0.339513	-0.009003	
-0.033418	0.010529	0.363928	-0.034028	
-0.057527	-0.015106	0.253147	-0.036164	
-0.069734	-0.045014	-0.026093	-0.013885	
-0.091401	-0.051118	0.042268	-0.009308	
-0.117342	-0.035554	-0.431373	0.002594	
-0.057832	0.000763	-0.374914	0.013885	
0.030060	0.012054	0.182956	0.000153	
0.080720	0.028229	0.070649	0.009003	
0.117037	0.036164	-0.052644	0.004730	
0.127108	0.041047	0.088044	0.002289	
0.013275	0.028839	0.128328	-0.016022	
-0.071259	0.044099	0.172885	0.000153	
0.062409	0.003815	0.106050	-0.021210	
0.142977	-0.016022	0.071565	-0.020294	
0.092927	-0.007782	-0.046235	-0.001678	
0.008392	-0.009308	-0.233921	0.006561	
-0.078279	-0.055696	-0.337682	-0.001984	
-0.071259	-0.066072	-0.421607	-0.017853	
-0.021820	-0.061494	-0.067597	-0.016022	
-0.003815	-0.089265	0.393225	0.009918	
0.022430	-0.031892	0.201266	0.014496	
0.054475	0.005035	0.088655	-0.006866	
0.100863	0.041047	0.125582	0.000458	
0.100252	0.065156	0.166476	-0.015411	
0.076142	0.077668	0.152132	-0.019989	
0.030975	0.095675	0.152742	-0.016632	
0.012360	0.082246	0.052339	-0.016022	
0.065156	0.081330	0.002289	-0.003204	
0.022736	0.118868	0.051423	0.006561	
-0.023651	-0.003815	0.122530	-0.009918	
-0.063020	-0.110628	0.039521	-0.007172	
-0.065156	-0.142366	-0.083772	-0.010529	
-0.016937	-0.128939	-0.120699	-0.002289	
-0.077363	-0.070649	-0.036775	-0.002899	
-0.176547	-0.007172	-0.074922	-0.007782	
-0.268711	-0.001373	-0.117342	-0.000763	
-0.267490	-0.038606	-0.160678	-0.006866	
-0.090180	-0.043794	-0.273899	-0.012970	
0.137178	-0.025787	-0.347754	-0.011444	
0.300450	-0.074006	-0.338597	-0.013580	
0.201266	0.017242	0.057221	-0.025177	
0.045320	0.153963	0.593423	-0.019379	
-0.047456	0.288854	0.168307	-0.024261	
-0.204623	0.373999	0.018768	-0.015717	
-0.417335	0.358435	0.199740	-0.003510	
-0.513466	0.247044	0.140535	0.029144	
-0.312657	-0.097811	-0.019073	0.028839	
-0.086518	-0.435645	-0.147860	0.005951	
-0.070954	-0.598917	-0.266880	-0.020599	
-0.056001	-0.618448	-0.205539	-0.023651	
0.022125	-0.420386	-0.201266	-0.003204	
0.087434	-0.065461	-0.057527	-0.003510	
0.186618	0.176242	0.323644	-0.004425	
0.223850	0.169223	0.132296	-0.013885	
0.267796	0.162814	0.153658	-0.012054	
0.320592	0.145418	0.025482	-0.010223	
0.295873	0.090180	-0.172885	-0.000153	
0.195468	0.075227	-0.106966	-0.012054	
0.060578	0.100863	0.150606	0.000763	
-0.042268	0.107271	-0.012360	0.000153	
-0.029755	0.128328	0.220493	0.002899	
-0.013580	0.126497	-0.039216	-0.003815	
0.002899	0.087129	-0.476540	0.002289	
-0.025787	0.059358	-0.291905	-0.007172	
-0.019379	0.074922	0.166476	0.012360	
0.030670	0.017853	0.463416	0.005035	
0.006256	-0.025787	0.425269	-0.008392	
-0.016327	-0.008392	0.388342	-0.012970	
0.051728	-0.009308	0.618448	-0.009613	
0.084077	-0.057527	0.426795	-0.016327	
0.001068	-0.064546	-0.050202	-0.027313	
-0.104525	-0.041352	-0.303197	-0.005646	
-0.190585	-0.042268	-0.556191	-0.007477	
-0.107576	0.010223	-0.549478	0.010223	
-0.012054	-0.002899	-0.149691	-0.015106	
0.030060	-0.024261	0.015411	-0.020294	
0.054475	0.031892	0.107882	-0.016327	
0.068818	0.053254	0.273594	-0.019073	
0.034028	0.010529	0.174106	-0.022430	
0.028534	-0.000763	0.002289	-0.010223	
0.003204	-0.008392	-0.040132	-0.005035	
-0.023651	-0.017242	-0.009918	-0.005646	
-0.008392	-0.017853	-0.036775	-0.017242	
0.001068	-0.004120	-0.037385	-0.005035	
0.006866	0.002289	-0.028534	0.001984	
-0.013885	0.009308	0.018158	-0.001984	
-0.041047	0.007172	0.014496	-0.000763	
-0.010223	0.010834	0.000458	0.000763	
-0.061494	0.025177	0.096285	-0.002899	
-0.104219	0.041963	0.107882	-0.001678	
-0.105440	0.044709	-0.111544	-0.002899	
-0.069428	0.020294	-0.511330	-0.011444	
-0.027924	0.008698	-0.593118	0.003815	
-0.016022	-0.030060	0.204318	0.004425	
0.031892	-0.066377	-0.015717	-0.002289	
0.065766	-0.050202	-0.242466	-0.003204	
0.060578	-0.012054	-0.195773	0.014496	
0.034944	0.000763	-0.132601	0.005951	
0.012054	0.040437	0.103304	-0.001984	
-0.017853	0.035249	0.614481	-0.016327	
-0.052949	0.016022	0.571145	-0.006256	
-0.048371	-0.014191	0.129854	0.000458	
-0.026093	-0.026093	0.226292	-0.001984	
-0.046540	-0.035859	0.241856	-0.017853	
-0.056306	-0.046540	0.180820	-0.020294	
-0.025482	0.005646	-0.040437	-0.009003	
0.024261	0.032502	-0.149385	-0.001984	
0.029144	0.037995	-0.137484	0.006866	
0.009918	0.040132	-0.095980	0.002289	
0.030060	0.012970	-0.197299	0.000153	
0.137178	-0.003510	-0.143892	0.006256	
0.246738	0.003815	0.029144	0.006866	
0.251316	0.011749	0.057221	-0.004120	
0.111238	0.039826	0.063020	-0.010529	
-0.007477	0.110323	0.160373	-0.017853	
-0.070954	0.224461	0.054475	-0.018463	
-0.086213	0.173190	0.009918	-0.018158	
-0.160068	0.106661	-0.084382	-0.007477	
-0.238194	0.016632	-0.174716	-0.010223	
-0.049287	-0.095675	0.174716	-0.017548	
-0.069428	-0.222019	0.277561	-0.005341	
-0.135347	-0.287633	-0.239414	-0.013275	
-0.101473	-0.267185	-0.159457	-0.014191	
-0.072175	-0.212863	-0.201266	0.001678	
0.019073	-0.066682	0.016327	0.009003	
-0.065461	-0.009308	0.023041	0.001984	
-0.265049	-0.026093	-0.300145	-0.014496	
-0.235752	0.051118	-0.292211	-0.030670	
-0.132296	0.135347	-0.254063	0.005341	
-0.128633	0.081330	0.268711	-0.022736	
0.019989	0.033418	0.256504	-0.023651	
0.188144	-0.048066	0.204013	-0.014496	
0.091401	-0.163730	0.119783	-0.000763	
-0.099642	-0.184482	0.219578	-0.006256	
-0.056916	-0.016937	0.301671	-0.003510	
0.158542	0.084077	-0.444190	-0.002289	
0.152742	0.141451	-0.215610	0.015411	
0.150606	0.196078	0.369726	0.024567	
0.055085	0.059968	0.242466	0.000458	
0.020294	-0.001373	0.059663	-0.005951	
0.024261	-0.042573	0.268711	-0.001068	
0.040742	0.002899	0.212863	-0.013885	
0.071259	0.056001	0.051728	-0.031587	
0.097200	0.112764	0.030060	-0.018463	
0.093843	0.087129	-0.030365	-0.005341	
0.086823	0.066377	-0.103914	-0.003204	
0.068208	0.021820	-0.120394	-0.009918	
0.060273	-0.007172	-0.108187	0.002289	
0.042878	-0.023956	-0.050202	0.001678	
0.036775	-0.004425	-0.001068	-0.001678	
0.019073	0.012054	0.015411	-0.019989	
0.010529	0.016632	0.022430	-0.021820	
-0.000763	0.030975	0.004120	-0.014496	
-0.010223	0.040132	-0.043489	-0.009918	
-0.019073	0.016327	-0.141451	-0.016327	
-0.005035	0.008698	-0.177768	-0.002289	
0.008392	0.008087	-0.064240	0.018158	
0.005035	-0.009613	-0.098116	-0.001678	
0.001068	-0.014191	-0.034333	-0.005646	
-0.035554	-0.021210	0.027008	-0.009918	
-0.049287	-0.005951	0.018463	-0.000763	
-0.056916	-0.012360	0.011139	-0.007477	
-0.079499	0.001678	0.016937	-0.003510	
-0.075532	0.012970	0.038606	0.000153	
-0.051728	0.013275	0.066377	0.011139	
-0.024872	0.002594	0.093537	-0.001373	
-0.005951	-0.002899	0.095675	-0.010223	
-0.002899	0.010529	0.084077	-0.011444	
-0.048066	0.023346	0.125582	-0.011444	
-0.070954	0.019073	-0.041963	-0.011444	
-0.088349	0.020599	-0.279697	-0.007172	
-0.084382	-0.000763	-0.292516	0.006561	
-0.050202	-0.016937	-0.674296	0.017242	
0.005646	0.012360	-0.492104	0.019073	
0.101168	0.020905	0.241856	-0.005035	
0.187533	0.022736	0.972458	-0.019073	
0.259556	0.058442	0.734722	-0.014496	
0.187533	0.186618	0.546121	-0.014191	
0.014801	0.251316	0.241856	-0.005646	
-0.021820	0.267185	-0.217746	0.031587	
0.037080	0.118563	-0.255589	0.001678	
0.010834	-0.128023	-0.314794	-0.034333	
-0.229649	-0.421912	-0.341954	-0.038911	
-0.464637	-0.507057	0.054780	-0.022736	
-0.489052	-0.456702	0.341649	-0.012054	
-0.314183	-0.417640	0.037385	-0.017853	
-0.101168	-0.214084	0.133516	-0.015717	
0.048982	0.070649	-0.009308	-0.008392	
0.104219	0.183566	-0.004425	-0.006256	
0.134432	0.153963	-0.007172	-0.015106	
0.203097	0.100252	-0.067903	-0.007172	
0.215304	0.085603	-0.116121	-0.007782	
0.225376	0.097200	-0.181735	0.007782	
0.214389	0.117342	-0.104830	0.000153	
0.178988	0.129549	0.175632	-0.004425	
0.040132	0.127413	0.123140	-0.005646	
-0.003204	0.182956	-0.082551	0.002594	
0.130465	0.184787	-0.090791	-0.005341	
0.138704	0.127413	-0.090791	0.008087	
0.080720	0.074922	-0.198215	-0.001984	
0.046235	0.039826	0.158237	-0.001984	
-0.087434	-0.037690	0.042268	-0.002899	
-0.211337	-0.088349	-0.391699	-0.008087	
-0.269016	-0.160983	-0.257725	-0.003510	
-0.292211	-0.195468	-0.066377	-0.003510	
-0.365149	-0.171969	-0.023956	0.010834	
-0.298619	-0.094759	0.586099	0.011139	
-0.052033	-0.009308	1.278248	-0.002899	
0.087129	-0.002899	0.055390	-0.013275	
0.033723	0.029144	-0.258640	0.007172	
-0.049592	-0.029755	-0.173495	0.022736	
-0.042268	0.014496	-0.207370	0.048066	
-0.011139	0.047151	0.233006	0.018158	
0.052644	0.040132	-0.050508	-0.025177	
0.115206	0.020599	-0.155184	-0.041657	
0.129549	0.068208	0.144503	-0.019379	
0.118868	0.084992	0.163730	-0.020599	
0.087129	0.072785	-0.147554	-0.016632	
0.065156	0.019379	-0.373693	0.000763	
0.104219	0.005035	0.001984	-0.003510	
0.131380	0.008698	0.053559	-0.020294	
0.138704	0.008087	-0.167697	-0.012970	
0.144503	0.017853	-0.265659	-0.005035	
0.044404	0.012054	0.057221	-0.017853	
-0.067292	0.017242	-0.054780	-0.009308	
-0.098116	0.019989	0.077363	-0.007172	
-0.014801	0.060884	0.139925	-0.019989	
-0.007782	0.111238	0.036469	-0.030670	
-0.000153	0.103609	0.032502	-0.011444	
-0.043489	0.034944	-0.004120	-0.001373	
-0.103609	-0.018463	-0.407264	0.009308	
-0.231480	-0.136263	-0.187533	0.005951	
-0.280918	-0.183261	0.410621	0.005951	
-0.201877	-0.178378	0.042268	-0.007172	
-0.081330	-0.099337	0.033418	0.016327	
-0.070039	-0.024261	0.722515	0.002289	
-0.045930	0.004730	0.499123	-0.022736	
0.048676	-0.002289	0.105440	0.005341	
0.118563	0.004730	-0.169833	0.009918	
0.136263	0.039216	-0.304723	-0.009918	
0.113070	0.093537	-0.305028	-0.019379	
0.097200	0.071565	0.034333	-0.016632	
0.085908	0.048982	-0.031281	-0.016327	
0.084992	0.034333	-0.014191	-0.010529	
0.094454	0.028534	0.005951	-0.009308	
0.091401	0.043489	0.003204	-0.014496	
0.027924	0.047456	-0.012054	-0.017242	
0.029755	0.059358	-0.013580	0.004425	
0.052339	0.077363	-0.021515	-0.014191	
0.132296	0.081635	-0.024567	-0.009918	
0.177463	0.082856	-0.023956	-0.001678	
0.104219	0.118258	-0.012970	0.005341	
-0.027008	0.135347	-0.015106	-0.000153	
-0.095980	0.066377	-0.016022	-0.009308	
-0.158237	-0.076142	-0.015411	-0.009918	
-0.159457	-0.164035	-0.016022	-0.016327	
-0.097200	-0.228733	-0.007172	-0.016327	
-0.163730	-0.230869	0.002594	0.002289	
-0.284581	-0.209201	-0.003815	-0.019379	
-0.244907	-0.162509	-0.017242	-0.021515	
-0.107271	-0.077668	-0.002289	0.001678	
0.008698	-0.027008	0.011749	-0.005035	
0.065766	0.036775	0.039216	0.000458	
0.068208	0.052033	0.038606	-0.000763	
0.101168	0.054780	0.048371	0.001678	
0.166781	0.075532	0.042268	-0.004120	
0.296483	0.114595	0.029144	0.000153	
0.304418	0.176242	0.010834	-0.001984	
0.102083	0.155794	-0.014496	-0.002899	
-0.105135	0.132906	0.006561	-0.009613	
0.037995	0.056306	0.013275	0.001068	
0.158847	-0.096285	0.019073	0.004730	
0.026398	-0.118563	0.003815	-0.003510	
-0.262302	-0.098421	-0.034333	-0.005951	
-0.438087	-0.121614	-0.031892	-0.010529	
-0.375219	-0.102694	0.019379	-0.015717	
-0.204013	-0.020905	0.064851	-0.010529	
-0.073701	0.023041	0.093232	0.006866	
-0.026093	-0.056001	0.049287	-0.001373	
-0.021820	0.047456	-0.004120	0.009308	
-0.025482	0.023041	0.045014	-0.006256	
0.029144	-0.051423	0.129854	-0.000763	
0.051728	-0.011139	-0.000153	-0.009918	
0.112764	-0.002899	-0.175632	-0.008087	
0.158542	0.035249	-0.259556	-0.000763	
0.217746	0.058137	-0.131380	-0.000763	
0.195468	0.060273	0.062409	-0.005951	
0.128633	0.088960	0.189059	-0.018463	
0.075227	0.119478	-0.267185	-0.021515	
0.015717	0.167697	-0.151827	-0.015717	
0.000763	0.183566	-0.068818	-0.000153	
0.028229	0.118563	0.572671	0.001068	
-0.098421	-0.007172	0.336766	0.000763	
-0.295873	-0.170138	0.138399	0.002594	
-0.293736	-0.263218	0.190890	0.026398	
-0.095675	-0.285497	0.065766	0.015106	
0.092927	-0.258640	0.040132	-0.004425	
0.062409	-0.041352	0.079499	-0.036164	
-0.040437	0.152742	0.012665	-0.033418	
-0.069123	0.131990	-0.116121	-0.026093	
-0.031892	0.110323	-0.235447	0.000153	
-0.020905	0.068513	-0.256199	-0.000153	
-0.004425	0.024567	0.275730	-0.009918	
0.028534	0.002594	0.145418	-0.016632	
0.046845	0.025177	0.271152	0.012665	
0.024261	0.057221	0.045320	0.012054	
0.032502	0.052339	-0.052033	0.009308	
0.155184	0.023041	-0.181430	0.009918	
0.222630	-0.007172	-0.300756	-0.040742	
0.138704	-0.014801	-0.311437	-0.048371	
0.075837	-0.019989	-0.270542	-0.011139	
0.042268	0.036469	-0.043183	0.011444	
-0.017242	0.091706	0.070954	0.001068	
-0.109102	0.112459	0.200351	-0.001984	
-0.242771	0.077668	0.114290	-0.009003	
-0.288854	0.013275	0.056611	-0.001678	
-0.209506	-0.076753	-0.127413	-0.006256	
-0.009308	-0.173800	-0.149996	-0.020599	
0.072480	-0.159762	-0.057832	-0.019989	
0.095980	-0.052339	-0.036164	-0.017853	
0.076753	0.032197	-0.007172	-0.003510	
0.033723	0.038911	0.028534	-0.005035	
0.016327	0.061189	0.377050	-0.003204	
0.061189	0.046540	0.123751	-0.007172	
0.048676	0.006256	-0.121614	-0.015411	
-0.020905	-0.006256	-0.090180	-0.017242	
-0.066377	-0.008087	-0.040742	0.003204	
-0.084992	-0.024261	0.116121	0.006866	
-0.025177	-0.049287	0.464637	0.008087	
-0.011749	-0.064240	0.157626	-0.000153	
-0.004425	-0.053254	-0.143587	-0.005646	
-0.005341	-0.055085	-0.226292	-0.014191	
0.082551	0.007782	-0.021210	0.009918	
0.126497	0.040437	-0.084077	0.014191	
0.101473	0.041963	-0.371862	0.016022	
0.042573	0.045320	-0.167087	0.012360	
-0.021820	0.066682	0.484169	0.003815	
-0.092317	0.066377	0.303197	-0.005646	
-0.073396	0.039826	0.342870	0.002289	
-0.048982	0.029755	0.111544	-0.015106	
-0.061189	0.017242	0.240940	-0.031587	
-0.041963	0.005951	0.284886	-0.014496	
-0.073701	0.002289	0.105440	-0.024261	
-0.063935	0.020294	-0.133211	-0.015717	
-0.054170	-0.018158	-0.504921	-0.001678	
-0.005646	-0.065156	-0.543374	0.006866	
0.077058	-0.092317	-0.266880	-0.005341	
0.118563	-0.072480	-0.285192	-0.011444	
0.053254	-0.020905	0.030975	-0.013275	
0.010529	0.019379	0.090791	-0.008087	
0.068208	0.019073	0.315099	-0.019073	
0.140230	0.044709	0.082551	-0.010529	
0.158237	0.002289	-0.095064	-0.004425	
0.133211	-0.025482	-0.081941	-0.002899	
0.068818	-0.019379	-0.080110	-0.002899	
0.006866	-0.007172	0.117952	-0.009918	
-0.017548	0.034638	0.326085	-0.023651	
0.033723	0.099337	0.072480	-0.016632	
-0.024261	0.141451	0.182956	0.022430	
-0.256504	0.124666	0.039521	0.019989	
-0.272678	0.157016	-0.047761	-0.016022	
-0.204928	0.227512	-0.118258	-0.025177	
-0.101778	0.265659	-0.355078	-0.000153	
-0.062104	0.199130	-0.502480	0.000763	
-0.196689	0.106966	-0.115511	-0.003204	
-0.288548	-0.142061	0.313268	-0.016327	
-0.215304	-0.379492	0.042573	0.000458	
-0.083467	-0.542764	-0.101473	0.002899	
-0.033418	-0.535745	0.068513	-0.011444	
0.041047	-0.375830	0.162204	-0.020294	
0.155184	-0.118563	-0.090791	-0.008087	
0.256809	0.103304	-0.331273	-0.015717	
0.273899	0.088349	0.005341	0.003815	
0.183261	0.108187	0.549783	-0.027313	
0.064546	0.046845	-0.034638	-0.005646	
0.006561	0.077668	0.030365	0.000153	
0.042268	0.115206	0.597086	-0.012054	
0.157016	0.118258	0.403601	-0.009308	
0.154879	0.098726	0.089570	-0.021515	
0.092011	0.096590	0.076753	-0.014496	
0.040437	0.108187	-0.023956	0.007172	
0.041352	0.088655	-0.095980	0.004730	
0.034944	0.095369	-0.155489	-0.011749	
-0.043183	0.104219	0.035249	0.006256	
-0.167392	0.078584	0.225376	0.005035	
-0.243992	0.058137	0.036469	-0.005035	
-0.220493	0.000458	-0.005646	-0.005035	
-0.145113	-0.025177	-0.008087	0.007172	
-0.079499	0.038301	0.025482	-0.001984	
0.030060	0.037385	0.152742	-0.013580	
0.064240	-0.017853	0.269321	-0.013580	
0.057221	-0.002899	0.136263	-0.020599	
0.138094	-0.023956	-0.336766	0.002899	
0.275425	-0.121614	-0.753643	0.012360	
0.189670	-0.144503	-0.520790	0.014191	
0.044709	-0.110323	-0.185702	0.005341	
-0.016327	0.028229	-0.267796	0.012360	
-0.097200	0.088960	0.143892	-0.001984	
-0.018158	0.076753	0.030975	0.006866	
0.099947	0.050202	-0.284276	-0.005035	
0.138094	-0.041963	0.085603	-0.012054	
-0.051423	-0.123446	-0.128328	-0.022125	
-0.076142	-0.080110	-0.066682	-0.004425	
-0.101473	-0.012054	-0.061799	-0.001984	
-0.246433	0.030670	0.107576	-0.007172	
-0.332799	0.035859	0.482948	-0.006866	
-0.412147	-0.035249	0.305333	-0.000153	
-0.326390	-0.126497	0.173800	-0.005646	
-0.180514	-0.157626	-0.176852	-0.017853	
-0.071565	-0.100252	-0.108492	-0.003510	
0.095369	0.034028	-0.248569	-0.010223	
0.217135	0.060578	0.037690	-0.010223	
0.237278	0.074922	0.991074	-0.014496	
0.161593	0.132906	0.780804	-0.030670	
0.072480	0.181735	-0.007172	-0.029449	
0.084382	0.161899	-0.156405	0.000763	
0.193332	0.082856	-0.436866	0.001068	
0.257114	-0.022125	-0.228733	-0.007477	
0.108797	-0.098116	0.109713	-0.009918	
-0.103914	-0.088349	0.180514	0.000763	
-0.211947	-0.019989	0.047761	-0.009003	
-0.234531	0.039826	0.004120	-0.003204	
-0.236057	0.012970	0.070039	0.000153	
-0.189364	-0.042268	-0.075532	0.004425	
-0.080110	-0.081941	-0.231785	-0.002899	
0.007172	-0.126497	-0.056001	-0.000763	
0.050202	-0.086823	0.090180	0.002289	
0.098421	0.043183	0.019989	0.001678	
0.198215	0.060884	-0.069734	0.005951	
0.183261	0.013885	-0.171359	-0.012054	
0.101168	0.037385	-0.162509	-0.032807	
-0.010223	0.112459	-0.170138	-0.044709	
0.000763	0.121614	-0.116121	-0.022736	
0.030670	0.089265	-0.145113	-0.025482	
-0.032502	0.033418	-0.094149	-0.009613	
0.002594	-0.071870	-0.088655	-0.003815	
0.081941	-0.184787	-0.053864	-0.005035	
0.055085	-0.161288	0.477455	-0.000153	
0.006561	-0.054170	0.504005	-0.003204	
-0.047456	0.078279	0.084687	-0.000763	
0.023651	0.069428	0.157321	-0.009003	
0.028839	-0.006866	0.133516	-0.004425	
-0.067292	-0.043794	0.038606	-0.025177	
-0.127718	-0.025787	-0.038301	-0.007782	
-0.129854	-0.003204	-0.175021	0.014191	
-0.033418	0.007172	-0.120394	0.013275	
0.052033	0.032502	-0.177157	0.002899	
0.080110	0.037385	-0.330663	-0.003510	
0.038606	0.090180	-0.516212	0.002594	
-0.021515	0.076447	-0.656901	0.007782	
-0.054170	0.030975	-0.389257	-0.009308	
-0.016937	0.019073	0.121309	-0.003510	
0.041047	0.012360	0.154879	0.003204	
0.074006	0.042573	0.538796	0.005951	
0.063020	0.046235	0.407569	0.000153	
0.019989	0.041047	0.673381	0.003204	
-0.008087	0.015717	0.465552	0.009003	
-0.023956	-0.019379	0.195163	0.000763	
-0.009613	-0.038606	0.313573	-0.003510	
-0.017853	-0.029144	0.296178	-0.006866	
-0.015106	0.003204	0.168307	-0.002899	
0.068208	0.041047	-0.194247	-0.020599	
0.058137	0.115816	-0.181735	-0.027313	
-0.077973	0.207370	-0.167697	-0.025177	
-0.167392	0.203403	-0.109102	-0.017853	
-0.086518	0.201877	0.042878	-0.021210	
0.448462	0.171359	-0.012054	-0.004425	
0.526283	0.010223	-0.139315	-0.007172	
-0.027008	-0.208285	-0.112764	-0.002289	
-0.446631	-0.371862	0.060578	-0.010529	
-0.407874	-0.435950	0.178073	0.001678	
-0.219578	-0.383764	0.056611	-0.004120	
-0.079804	-0.254368	-0.205234	-0.001678	
-0.112154	-0.075227	-0.266270	0.008087	
-0.243687	-0.027313	-0.317540	0.008087	
-0.180820	-0.011444	-0.165256	0.023651	
-0.058137	-0.003510	0.349585	0.004120	
0.026093	0.064851	0.022736	-0.012054	
0.060273	0.061189	-0.130770	-0.019379	
0.172275	0.060884	0.001984	-0.000153	
0.264744	0.117342	-0.108187	-0.022125	
0.236668	0.154879	-0.030060	-0.035859	
0.232395	0.192111	-0.014496	-0.029449	
0.095064	0.225986	0.016327	-0.017853	
-0.055696	0.197299	0.036164	-0.019684	
-0.089875	0.095064	0.044709	-0.009918	
-0.137484	-0.059052	0.028229	-0.011139	
-0.107271	-0.156099	0.029144	0.000763	
-0.059358	-0.185397	0.017242	0.004120	
-0.008392	-0.041047	0.001068	-0.002899	
0.090180	0.101473	-0.022430	-0.004425	
0.150911	0.049897	-0.000763	-0.012054	
0.153658	0.024872	0.095980	0.002289	
0.090791	0.027924	0.112459	-0.009003	
-0.039826	0.001984	0.051423	-0.010223	
-0.153353	-0.014191	-0.148775	-0.000763	
-0.133211	-0.010834	-0.182651	-0.012970	
-0.040437	-0.032502	-0.041352	-0.001678	
-0.048066	0.038911	-0.424659	0.009918	
-0.057221	0.140841	-0.128328	-0.000763	
-0.055085	0.099337	0.210116	-0.005646	
-0.100252	-0.075532	0.359961	-0.007477	
-0.084077	-0.216220	0.530556	-0.005035	
0.007782	-0.272678	0.245518	-0.009308	
0.016632	-0.160373	0.033418	-0.005341	
-0.018158	0.012054	-0.040132	-0.002899	
-0.035554	0.093537	-0.076447	-0.025482	
-0.016022	0.077058	-0.173800	-0.031587	
-0.006866	0.099642	-0.216525	-0.012054	
0.005646	0.039216	0.137178	0.004730	
0.010529	0.015106	0.211032	-0.004120	
0.019073	0.026093	0.074616	-0.013580	
0.018158	0.006256	0.088655	-0.018463	
0.035859	0.023956	0.132296	-0.001373	
0.023651	0.040742	0.063935	-0.000763	
0.024261	0.049897	0.023041	-0.003204	
0.023651	0.040437	-0.028229	-0.007477	
0.032502	0.034333	-0.029144	-0.008392	
0.037080	0.021820	0.028839	-0.017242	
0.039826	0.018768	0.154268	-0.000153	
0.034333	0.007782	0.108797	-0.001984	
0.046540	0.002289	-0.118868	0.001068	
0.065766	-0.010834	-0.339208	0.012360	
0.039826	-0.006256	-0.509499	0.015106	
-0.006256	-0.008392	-0.334630	0.001678	
0.023956	-0.012054	-0.017242	-0.001678	
0.054170	-0.011444	0.108187	-0.008087	
0.032807	0.004120	0.160373	-0.006866	
-0.008392	0.039216	0.335546	0.010834	
-0.075227	0.046845	0.036775	0.005341	
-0.133211	0.031892	0.067903	-0.002899	
-0.119173	-0.003815	0.019379	-0.014191	
-0.061189	-0.013580	0.033418	-0.017242	
-0.037995	-0.035554	0.022430	-0.020294	
-0.027008	-0.033113	0.004425	-0.008087	
-0.003510	-0.009613	-0.002289	-0.011749	
0.007782	0.006866	-0.008087	-0.010529	
0.001678	-0.005646	-0.009613	-0.015106	
0.013885	-0.005646	0.012665	-0.003510	
0.013885	-0.005035	0.022125	-0.008392	
0.007172	0.004425	0.039216	-0.005035	
-0.008087	-0.001373	0.049287	-0.009613	
-0.030975	-0.010834	0.136568	-0.012054	
-0.022430	-0.012054	0.222019	-0.009308	
-0.009003	-0.017548	0.130465	-0.016327	
0.013275	-0.010834	0.054475	-0.003510	
0.028839	-0.015106	-0.035859	-0.011749	
0.082551	-0.007477	-0.115206	-0.005035	
0.112764	0.007172	-0.218662	-0.005341	
0.093843	0.063020	-0.355078	0.006256	
0.088960	0.068208	-0.351721	0.004120	
0.062715	0.071259	-0.345007	0.007782	
-0.034028	0.092927	-0.354773	-0.002899	
-0.074006	0.101473	-0.220493	0.004730	
-0.111238	0.026093	0.200046	-0.000763	
-0.134127	-0.063325	0.400854	-0.013275	
-0.087129	-0.093843	0.403296	0.000153	
-0.059968	-0.092011	0.195163	-0.005035	
-0.064240	-0.096285	0.173495	-0.013275	
-0.129549	-0.098116	0.106356	-0.010529	
-0.138094	-0.041352	0.077058	-0.015106	
-0.087739	0.001984	0.061189	-0.012970	
0.007782	0.027313	0.067903	-0.001068	
0.061189	0.046235	0.106050	-0.007782	
0.099031	0.056916	0.071259	-0.007782	
0.074006	0.032197	0.022125	-0.014191	
-0.021515	-0.019073	-0.048676	0.008698	
-0.094454	-0.083467	-0.196383	0.024261	
0.006561	-0.091706	-0.204013	0.009918	
0.070039	-0.027618	-0.323339	-0.028534	
0.035859	0.036469	-0.245823	-0.016327	
-0.048371	0.105440	0.226902	-0.016022	
-0.012360	0.053254	0.337682	-0.016022	
0.055390	-0.075837	0.095980	-0.010223	
0.048066	-0.117647	0.109102	-0.013580	
-0.031587	-0.106966	0.068513	-0.017548	
-0.031281	-0.086213	-0.118868	-0.000153	
0.052033	-0.021515	-0.000153	0.012360	
0.007782	0.049897	0.254368	0.022430	
-0.055085	0.074006	0.001984	0.018463	
0.012665	0.097811	0.471962	-0.005035	
0.238804	0.068208	0.582742	-0.009918	
0.197604	0.056611	0.175937	-0.020599	
0.092622	0.104219	0.011749	-0.012054	
-0.074006	0.151827	-0.180820	-0.004425	
-0.260166	0.261692	-0.243992	0.012665	
-0.153658	0.243992	-0.345312	-0.009003	
-0.023651	0.087434	-0.247959	-0.016327	
-0.236362	-0.112154	-0.123446	-0.024567	
-0.426795	-0.282445	-0.120089	-0.013580	
-0.242466	-0.327611	0.065156	-0.006866	
0.104525	-0.238804	0.050813	-0.013580	
0.206759	-0.089570	0.083161	-0.012054	
0.189364	0.065156	0.205234	0.003815	
0.121920	0.125277	0.148775	0.008087	
0.063020	0.097200	0.060578	-0.022125	
0.055390	0.043183	0.032807	-0.016022	
0.050202	0.020294	-0.273289	-0.007172	
0.063020	0.036469	-0.491493	0.029449	
0.055085	0.021820	-0.283360	0.022736	
0.058137	0.028839	-0.327306	-0.005951	
0.042878	0.021820	-0.324559	-0.024261	
0.048371	0.019379	0.022430	-0.017548	
0.052949	0.005951	0.175632	-0.011139	
0.037995	0.007172	-0.036775	-0.011749	
0.015106	0.016022	-0.118258	-0.014191	
0.011139	0.030670	-0.140841	-0.003510	
-0.012360	0.035249	-0.351721	0.004425	
-0.031892	0.026093	-0.100252	0.005341	
-0.045625	0.007782	0.567788	0.001678	
-0.042268	-0.003815	0.624552	-0.001984	
-0.025787	-0.015717	0.665141	-0.012970	
-0.017853	-0.019989	0.148775	-0.015106	
-0.034028	-0.017242	-0.110323	-0.009918	
-0.031281	-0.001678	0.083772	-0.013580	
-0.029449	0.020599	0.103304	-0.004120	
-0.034028	0.023041	0.224461	-0.001984	
-0.023956	0.000458	0.482948	0.002289	
-0.010834	-0.012970	0.243687	-0.005035	
0.023956	-0.012970	0.227207	-0.013275	
0.084687	-0.024261	0.303197	-0.007477	
0.161288	-0.016937	-0.023041	0.008392	
0.190280	0.016937	-0.246128	0.007172	
0.161593	0.082551	-0.304112	0.010223	
0.081025	0.160678	-0.386511	0.001678	
-0.041352	0.191501	-0.237583	-0.025787	
-0.139925	0.164950	-0.035554	-0.027924	
-0.260166	0.030670	-0.251011	-0.003510	
-0.376135	-0.097506	-0.475319	0.021210	
-0.388037	-0.192111	-0.223850	0.004120	
-0.308690	-0.230259	-0.270542	-0.024567	
-0.094149	-0.252842	-0.217135	-0.027618	
0.157321	-0.187839	0.352942	-0.005341	
0.118563	-0.053864	0.182956	-0.007477	
0.065156	0.036469	-0.123446	-0.021515	
-0.039521	0.081635	-0.121309	-0.017853	
0.042573	0.118563	-0.130465	-0.013275	
0.279697	0.056306	0.052339	-0.013275	
0.281223	-0.052339	0.115206	-0.015411	
0.133211	-0.024872	0.178378	-0.013885	
-0.008392	-0.029449	0.121309	-0.011139	
-0.065156	-0.121920	0.133516	-0.011139	
-0.065766	-0.123446	0.208285	0.006561	
-0.078584	-0.041963	0.068513	0.012360	
-0.088655	0.077668	0.052339	-0.002899	
-0.097200	0.089265	0.084077	-0.008087	
-0.102388	0.079194	-0.103304	-0.000763	
-0.049897	0.052339	-0.205844	-0.002289	
0.066682	0.069428	0.052339	-0.004120	
0.096895	0.118868	0.154268	0.004425	
0.056611	0.125277	-0.236057	-0.006256	
0.029755	0.133211	0.205844	-0.003510	
0.016327	0.076753	0.817731	0.001068	
0.164645	-0.019684	0.214694	0.005341	
0.173190	-0.177768	-0.009003	-0.002899	
0.120089	-0.203097	-0.108797	-0.001984	
0.171054	-0.117037	-0.118868	-0.011444	
0.158542	0.002594	-0.043794	-0.016327	
0.125277	0.032197	-0.066987	-0.009308	
-0.021210	0.097200	-0.088044	0.004120	
-0.276035	0.157016	-0.116121	-0.005951	
-0.221409	0.147249	-0.111544	-0.001984	
-0.230564	0.153048	-0.062715	0.009918	
-0.417029	0.074616	0.000458	-0.001373	
-0.488747	-0.075227	0.047761	0.000458	
-0.331273	-0.244602	-0.014191	-0.005035	
-0.138399	-0.241550	-0.012970	-0.009003	
-0.041352	-0.196383	0.003204	-0.018158	
0.030975	-0.075837	0.055696	-0.013275	
0.052339	0.062104	0.021210	-0.010529	
0.130159	0.074311	-0.029449	-0.020294	
0.155184	0.095064	-0.055696	-0.017853	
0.153658	0.135653	-0.072785	-0.011139	
0.114595	0.146029	-0.058137	-0.008087	
0.074006	0.080110	-0.015717	-0.017853	
0.092622	0.052339	0.000763	-0.022430	
0.101473	0.046235	0.001068	-0.025482	
0.086518	0.050202	0.027008	-0.001678	
0.092927	0.046235	0.018463	0.016937	
0.092927	0.057221	0.014496	0.016022	
0.086213	0.050813	0.082856	0.011444	
0.074311	0.029755	0.120394	0.016937	
0.040132	0.001678	0.141146	-0.001678	
0.019073	-0.031587	0.196994	-0.007477	
0.007782	-0.080720	0.120394	0.002289	
-0.002289	-0.104525	-0.030060	0.009308	
0.026398	-0.106356	-0.229649	0.002899	
0.043794	-0.093537	-0.271763	0.002899	
0.027313	-0.045014	-0.200351	-0.002899	
-0.012970	0.001984	-0.228733	-0.009003	
-0.073091	-0.003204	-0.122225	-0.011749	
-0.079804	0.006256	-0.175632	-0.005035	
-0.084077	0.024567	-0.040437	-0.000763	
-0.065156	0.019073	-0.106356	-0.003204	
-0.062104	0.028839	0.230259	0.002289	
-0.069734	0.016022	0.488441	-0.012360	
-0.021820	0.014496	0.128328	-0.022736	
0.048676	0.012970	-0.030365	-0.010223	
0.079804	0.004120	-0.212558	-0.008087	
0.063325	-0.001068	-0.052033	-0.023346	
0.035249	0.009003	0.279087	-0.006256	
0.034333	0.014496	-0.099337	-0.006256	
0.108797	0.053254	-0.178683	-0.015106	
0.144808	0.133821	-0.094759	-0.001678	
0.039216	0.187228	0.084687	0.015411	
-0.091401	0.115511	0.137789	0.016022	
-0.129549	0.021820	1.012436	-0.005646	
-0.149385	-0.085298	0.804914	-0.032197	
-0.280613	-0.172275	-0.165256	-0.021515	
-0.278172	-0.195163	-0.392309	-0.010223	
-0.128328	-0.152132	-0.251011	-0.008392	
-0.067597	-0.101473	0.079804	-0.009308	
-0.045014	-0.058137	-0.101168	-0.017548	
-0.010223	0.048676	-0.200046	0.000153	
0.125582	0.081330	0.037385	0.000153	
0.263828	0.012054	0.342565	-0.020599	
0.213168	-0.062409	0.220493	-0.034333	
0.158237	-0.039826	0.109713	0.006866	
0.038301	-0.023041	-0.023956	0.000153	
-0.121614	-0.016022	-0.208285	-0.016632	
-0.162814	0.058442	-0.104525	-0.025482	
-0.185397	0.053559	0.060273	0.004120	
-0.336461	-0.086213	0.067597	-0.001984	
-0.218356	-0.150301	0.081025	-0.010223	
0.138094	-0.125887	0.031587	-0.008392	
0.303807	-0.081941	-0.049592	0.001678	
0.249485	0.040437	-0.210422	0.009003	
0.172580	0.206149	-0.391394	0.003815	
0.186618	0.198825	-0.126802	0.007782	
0.063325	0.076447	-0.358130	0.017548	
-0.115511	0.062715	-0.365759	0.004425	
-0.232090	0.031892	-0.254368	-0.004120	
-0.257420	-0.019073	-0.184787	-0.023346	
-0.175937	-0.106966	-0.078584	-0.027924	
0.007172	-0.112154	-0.128939	0.000458	
0.060578	-0.024261	0.152132	0.005035	
0.044404	0.052339	0.388342	0.016632	
-0.003510	0.144503	0.037690	0.011444	
-0.013275	0.175632	0.002899	-0.020599	
0.030060	0.082246	-0.074616	-0.028534	
0.065156	0.046235	-0.004120	-0.009308	
0.074922	0.020294	0.051118	-0.021820	
0.034028	-0.012970	-0.044404	-0.009003	
0.013275	-0.034028	-0.114595	0.001678	
0.009613	0.011749	0.172885	-0.007172	
0.008087	0.016022	0.963302	-0.003510	
0.004120	0.005035	0.748760	-0.005646	
0.018158	0.012970	0.336461	-0.003204	
0.014801	0.016022	0.082551	-0.016327	
0.015106	0.028534	-0.179599	-0.009918	
0.007782	0.014801	0.034333	-0.002289	
-0.008087	0.014191	-0.102694	-0.007477	
-0.036469	0.008698	0.172275	-0.007782	
-0.058442	-0.016937	0.323339	-0.000153	
-0.077363	-0.058137	0.103304	-0.008392	
-0.072175	-0.063325	0.173800	0.003815	
-0.077668	-0.062104	0.064546	0.005341	
-0.092317	-0.059663	-0.046235	0.008087	
-0.100557	-0.038301	-0.286412	0.002899	
-0.097811	-0.004120	-0.605631	0.008392	
-0.058442	0.016632	-0.728619	0.017242	
0.038606	0.016022	-0.424354	-0.007172	
0.060273	0.012665	-0.069123	-0.017853	
0.053864	0.016632	-0.244602	-0.017242	
0.078279	0.041963	-0.197299	-0.034944	
0.102694	0.038301	0.046235	-0.023651	
0.108797	0.030670	0.172580	-0.007782	
0.090486	0.003815	0.203097	-0.018463	
0.078889	-0.015717	0.123751	-0.004425	
0.063935	-0.033113	0.047151	-0.003204	
0.052033	-0.032197	0.031281	-0.006256	
-0.012970	-0.020905	0.031281	-0.005341	
-0.058442	0.010529	0.002899	0.001678	
-0.032197	0.022430	0.024872	-0.003510	
0.044404	0.049897	0.019073	-0.009308	
