NO_OF_SAMPLES	4800
TOT_NO_OF_CHAN	4
FREQUENCY	960.000000
NO_OF_CALC_CHAN	0
TIME_STAMP	2020-02-08, 11:47:44	227941.92027560
FIRST_SAMPLE	1
DESCRIPTION	--
DATA_INCLUDED	Analog
CHANNEL_NAMES	Vastus Lateralis	Vastus Medialis	Tibialis Anterior	Lateral Gastroc
CHANNEL_GAIN	1	1	1	1
FP_LOCATION
FP_CAL
FP_GAIN
Vastus Lateralis	Vastus Medialis	Tibialis Anterior	Lateral Gastroc	
-0.009003	0.005951	0.008087	-0.000763	
-0.009003	0.002289	0.004730	-0.002289	
-0.009308	0.005035	0.004120	-0.005951	
-0.003815	0.002289	0.005035	-0.007782	
0.001068	0.004730	0.011749	-0.001373	
0.002899	-0.001984	0.001984	-0.008392	
0.016937	0.003815	0.008698	-0.004120	
0.011139	-0.001984	0.000458	-0.008087	
0.007172	0.006256	0.009918	0.001068	
-0.010834	-0.001068	0.005341	-0.007477	
-0.011139	0.003815	0.008392	-0.011139	
-0.011444	0.008698	0.007172	-0.023346	
-0.017548	0.010223	0.010529	-0.023651	
-0.020905	0.005646	0.010529	-0.022430	
-0.018463	0.003815	0.011139	-0.012054	
-0.014801	0.007782	0.010529	-0.011749	
-0.011444	0.002899	0.006561	-0.013580	
0.006866	0.008392	0.013275	-0.005341	
0.004425	0.004425	0.008392	-0.005646	
0.007782	0.005035	0.015411	-0.003510	
-0.011139	-0.001373	0.005951	-0.011139	
-0.009003	0.010223	0.011139	-0.002289	
-0.009918	0.001984	0.005035	-0.007477	
0.001068	0.010529	0.012054	0.002289	
-0.008392	0.002594	0.006866	-0.000763	
-0.006866	0.004425	0.005341	-0.002899	
-0.007477	0.001678	0.003204	-0.011139	
-0.001373	0.007782	0.009308	-0.004120	
-0.005035	0.006256	0.007782	-0.005035	
-0.002289	0.003815	0.010223	-0.003204	
-0.005341	0.002289	0.008392	-0.008392	
-0.005341	0.007172	0.008392	-0.001678	
-0.003510	0.010529	0.010834	0.000153	
-0.002289	0.008087	0.010223	-0.006866	
-0.001068	0.004120	0.013275	-0.007477	
-0.006256	-0.003204	0.006256	-0.007477	
0.000458	0.014496	0.016327	-0.002289	
-0.010834	0.006561	0.006561	-0.017242	
-0.005951	0.005035	0.008392	-0.012054	
-0.009308	0.001068	0.012054	-0.005341	
-0.007477	-0.001984	0.011749	-0.003510	
-0.005951	-0.010223	0.006256	-0.003510	
-0.005341	-0.006256	0.009308	-0.001984	
-0.003815	-0.004120	0.008698	0.000153	
-0.009918	-0.002899	0.009918	0.009308	
-0.017548	-0.011749	0.000153	0.005341	
-0.011444	-0.010834	-0.001373	0.006561	
-0.016327	-0.012054	0.006256	0.008392	
-0.021210	-0.010834	0.001984	0.003815	
-0.013275	-0.011139	0.001678	-0.016632	
-0.002289	-0.012054	-0.000153	-0.036164	
0.011139	-0.007172	0.011139	-0.023956	
0.016327	-0.006866	0.009918	-0.026703	
0.024261	-0.006256	0.011139	-0.010223	
0.016327	-0.003815	0.012665	-0.002899	
0.006256	0.000763	0.013885	0.000763	
-0.005341	-0.001373	0.010834	-0.003510	
-0.007172	0.004120	0.011139	0.009918	
-0.015106	0.000458	0.008392	0.008087	
-0.010834	0.003815	0.006561	-0.002289	
-0.006256	-0.000763	0.007782	-0.009918	
-0.001068	-0.000153	0.006561	-0.015106	
-0.008392	0.001678	0.008698	-0.019073	
-0.011749	0.009003	0.011749	-0.024567	
-0.009003	0.014496	0.011139	-0.016632	
-0.007782	0.018158	0.010529	-0.006256	
-0.012054	0.013885	0.004730	-0.007782	
-0.020294	0.012970	0.007172	0.000153	
-0.013580	0.013885	0.005951	0.006561	
-0.005646	0.008087	0.009003	0.005035	
0.000153	0.009003	0.010529	0.008087	
0.001068	0.005646	0.005951	-0.005035	
0.001068	0.007782	0.008392	-0.011749	
-0.003204	0.005035	0.001984	-0.024567	
0.004120	0.014801	0.007782	-0.024567	
-0.002899	0.005646	0.002899	-0.034028	
-0.003510	0.007172	0.008392	-0.025787	
-0.016022	-0.000763	0.001678	-0.017853	
-0.010834	0.005951	0.006561	-0.000763	
-0.007782	0.008392	0.009308	-0.000763	
-0.002289	0.008392	0.013275	0.001678	
-0.008087	0.007172	0.014496	0.000153	
-0.009308	0.005951	0.010529	-0.004425	
-0.008392	0.007172	0.009918	-0.004120	
-0.005035	0.004730	0.009308	0.000153	
-0.001984	0.008698	0.013275	-0.000763	
-0.004120	0.002289	0.006256	-0.007172	
0.001984	0.002594	0.013275	-0.001373	
-0.005951	-0.001984	0.008698	-0.007477	
-0.002899	0.008087	0.009308	-0.003204	
-0.005646	0.005646	0.006256	-0.005646	
-0.001068	0.007782	0.010834	-0.004120	
-0.003204	0.009308	0.009003	0.000153	
-0.002289	0.010223	0.012970	0.008698	
-0.005646	0.003815	0.006561	0.003815	
0.001984	0.016022	0.007172	0.005341	
-0.008087	0.010834	0.008392	-0.001984	
-0.004425	0.004730	0.006256	-0.001984	
-0.007477	0.003204	0.004730	-0.000763	
-0.009613	0.000153	0.003204	-0.005951	
0.001068	0.008392	0.010529	-0.002289	
-0.004425	0.002899	0.005341	-0.007172	
-0.003510	-0.000763	0.007782	-0.008392	
-0.001068	-0.005951	0.007172	-0.012970	
-0.000153	-0.004425	0.010223	-0.009003	
-0.005951	-0.015106	0.007172	-0.015717	
-0.003204	-0.012054	0.011749	-0.011749	
-0.001984	-0.005646	0.006256	-0.012054	
0.001068	0.000763	0.015411	-0.003204	
-0.009003	-0.007782	0.008392	-0.013885	
-0.001678	-0.001984	0.014191	0.002899	
-0.006866	-0.009308	0.007782	-0.002289	
-0.008087	-0.008087	0.008392	-0.002289	
-0.011749	-0.006256	0.008392	-0.007172	
-0.009003	0.004730	0.010529	-0.001984	
-0.014191	0.003204	0.005951	-0.007782	
-0.009003	0.009003	0.006256	-0.004425	
-0.009003	0.006561	0.005341	-0.008087	
-0.008087	0.004730	0.005341	-0.005035	
-0.005035	0.005035	0.007172	-0.006256	
0.005646	0.005951	0.006866	-0.005646	
0.014801	0.005951	0.010529	-0.001373	
0.005951	-0.000763	0.004730	-0.012054	
0.012360	0.010834	0.015411	-0.001984	
-0.006866	0.005035	0.004730	-0.014191	
-0.003510	0.012360	0.007782	-0.013275	
-0.006866	0.005035	0.004425	-0.005035	
-0.007782	0.011749	0.006561	-0.001678	
-0.011139	0.010223	0.005341	-0.006256	
-0.000153	0.014191	0.012054	-0.000763	
-0.003815	0.005035	0.006866	-0.009308	
-0.015717	-0.003204	0.001068	-0.033418	
-0.010834	0.005646	0.007782	-0.048676	
-0.009003	0.005951	0.011139	-0.038911	
-0.005646	0.006256	0.019073	-0.015106	
-0.010223	0.003815	0.017242	0.002289	
-0.003815	0.004425	0.019379	0.016632	
-0.005951	-0.002899	0.012665	0.017548	
-0.001373	0.001984	0.018463	0.012665	
-0.001984	-0.004120	0.009003	-0.004120	
0.005951	0.004120	0.016327	0.001678	
-0.008087	-0.002289	0.005035	-0.004425	
-0.000763	0.004730	0.013885	0.002899	
-0.007477	-0.005341	0.004120	-0.009308	
-0.005951	-0.000763	0.004730	-0.009918	
-0.002289	0.001984	0.002289	-0.012360	
-0.003815	0.007172	0.003204	-0.009613	
-0.004425	0.012360	0.006256	-0.010529	
-0.009613	0.013275	0.005951	-0.014496	
-0.010834	0.010223	0.013275	-0.007782	
-0.010223	0.011139	0.016937	0.003815	
-0.007782	0.012054	0.024872	0.020294	
-0.012054	0.005951	0.012054	0.016022	
-0.003815	0.009308	0.012665	0.011444	
-0.015106	0.002594	0.001068	-0.003510	
-0.013275	0.011139	0.011749	0.005035	
-0.025177	-0.004120	0.004730	-0.005341	
-0.017242	0.002594	0.013275	-0.004120	
-0.025482	-0.007782	0.007172	-0.016632	
-0.010223	-0.007782	0.007782	-0.011749	
0.014496	-0.006256	0.006561	-0.011139	
0.037690	-0.003204	0.009918	-0.006256	
0.034638	-0.009918	0.004730	-0.007477	
0.031281	-0.006256	0.007172	-0.004120	
0.020905	-0.003204	0.009308	-0.006256	
0.004120	0.001984	0.006561	-0.009003	
-0.005341	0.004425	0.007172	-0.007477	
-0.005035	0.002289	0.004730	-0.011749	
-0.005646	0.014801	0.012054	-0.012970	
-0.003815	0.016022	0.009918	-0.015411	
-0.000153	0.016632	0.011749	-0.013580	
-0.017242	0.010834	0.005951	-0.018463	
-0.018158	0.011139	0.004730	-0.010223	
-0.018158	0.005951	0.002594	-0.009918	
-0.016327	0.012360	0.008698	0.005035	
-0.019073	0.001068	0.001984	-0.000763	
-0.009613	0.007782	0.010223	0.006561	
-0.011444	0.001678	0.004730	-0.005035	
-0.001068	0.005951	0.008392	-0.005646	
0.003204	0.009003	0.005951	-0.005951	
0.011139	0.010223	0.009003	-0.005951	
0.004425	0.008698	0.009918	-0.013275	
-0.001678	0.005035	0.004730	-0.010223	
-0.004425	0.002594	0.009308	-0.009613	
-0.010834	-0.002899	0.007782	-0.014496	
-0.010223	0.002594	0.006561	-0.014191	
-0.009003	-0.003204	0.007782	-0.011444	
-0.007782	-0.001373	0.010529	0.005035	
-0.011139	-0.007477	0.006256	0.005951	
0.000153	0.005646	0.015411	0.021210	
-0.006866	-0.002899	0.006256	0.012360	
-0.002289	0.003204	0.012054	0.002289	
-0.013275	-0.001984	0.003204	-0.026398	
-0.007477	0.005646	0.006256	-0.033723	
-0.011749	0.001984	0.007782	-0.022736	
-0.015411	0.002594	0.007172	-0.015411	
-0.011139	0.010223	0.006866	-0.013275	
-0.003204	0.004730	0.009003	-0.020599	
-0.000153	0.002899	0.014496	-0.015106	
-0.001373	0.003204	0.013885	-0.006866	
-0.002289	0.003815	0.007172	-0.007172	
-0.001068	0.001678	0.006561	-0.001678	
0.007782	-0.001373	0.011139	0.004730	
-0.000153	-0.012970	0.008698	0.002289	
0.000153	-0.005951	0.013275	0.006866	
-0.007782	-0.005646	0.008392	0.000763	
-0.003815	0.003204	0.011749	0.002899	
-0.008392	-0.006256	0.004425	-0.004120	
-0.005951	-0.005951	0.006866	0.000153	
-0.009003	-0.012970	0.008392	0.000458	
-0.007172	-0.005035	0.010529	0.001678	
-0.011444	-0.003510	0.006256	-0.003510	
-0.007477	0.005646	0.010529	-0.000153	
-0.012054	0.001678	0.004425	-0.009308	
-0.007172	0.010529	0.009003	-0.005646	
-0.013885	0.013275	0.009003	-0.001068	
-0.012360	0.014191	0.005341	0.000153	
-0.004120	0.013275	0.008392	-0.003204	
-0.001678	0.013885	0.003204	-0.011749	
0.009003	0.015106	0.010223	-0.003510	
0.011139	0.012970	0.009918	-0.011444	
0.007782	0.019073	0.009003	-0.027313	
-0.005951	0.013275	0.006256	-0.024261	
-0.004120	0.010834	0.010834	-0.026093	
-0.006866	0.006866	0.006866	-0.023346	
-0.006866	0.008698	0.012665	-0.019989	
-0.013885	0.003204	0.013885	-0.012360	
-0.002289	0.004425	0.021515	-0.004120	
-0.011139	-0.005646	0.009918	-0.002289	
-0.011444	-0.002289	0.007172	-0.002289	
-0.012054	-0.003815	0.008698	-0.005646	
-0.013885	-0.002289	0.004425	-0.000763	
-0.007172	0.002289	0.007782	-0.005646	
-0.005035	0.000153	0.001984	-0.009003	
-0.006866	-0.000153	0.004425	-0.008392	
-0.007782	0.002594	0.006256	-0.007782	
-0.008087	0.000763	0.006256	-0.008392	
-0.004425	0.005646	0.009918	-0.005341	
-0.004425	0.010223	0.007782	-0.005646	
-0.006866	-0.007172	0.003204	-0.008087	
-0.000763	0.002289	0.010223	-0.002899	
-0.007782	0.008698	0.000763	-0.007477	
-0.003510	0.007782	0.006866	-0.002899	
-0.015411	0.004120	0.004120	-0.005341	
-0.011139	0.008392	0.011749	0.000763	
-0.013885	-0.000153	0.004120	-0.006256	
-0.003510	0.010834	0.008392	0.003815	
-0.003815	0.000763	0.008698	-0.001678	
-0.000153	0.006256	0.009918	0.005035	
0.005646	0.008087	0.006866	0.013885	
-0.001068	0.000763	0.004730	0.009308	
-0.003510	-0.005951	0.010834	0.005341	
-0.006256	-0.005035	0.009003	-0.014191	
-0.002289	0.004730	0.010529	-0.039521	
-0.010223	-0.001678	0.003204	-0.046540	
-0.001984	-0.001373	0.012054	-0.034333	
-0.009613	-0.002899	0.004730	-0.046540	
-0.007477	-0.002289	0.005951	-0.040132	
-0.005341	0.003815	0.008392	0.012054	
-0.005341	0.000763	0.009308	0.069734	
-0.011139	-0.006256	0.001678	0.015106	
-0.005341	0.001068	0.009003	0.002899	
-0.013275	-0.012054	0.001984	-0.001984	
-0.003510	-0.005341	0.008698	0.004120	
-0.003510	-0.008392	0.005951	0.006256	
-0.003815	-0.005646	0.009003	-0.000153	
-0.001068	-0.009308	0.008392	-0.002899	
0.002289	-0.004120	0.006256	-0.000763	
0.003815	-0.000153	0.009003	-0.000763	
0.000763	0.001678	0.004730	0.001984	
0.000763	0.010223	0.005951	0.001678	
-0.002289	0.007782	0.003815	-0.002899	
-0.003204	0.013885	0.010223	0.001678	
-0.008087	0.010834	0.012665	-0.001373	
-0.001984	0.009003	0.014496	-0.002289	
-0.004120	0.004425	0.007172	-0.014496	
-0.000763	0.011749	0.013275	-0.014496	
-0.004425	0.010223	0.008698	-0.028839	
-0.003204	0.013275	0.012665	-0.028229	
-0.005646	0.010223	0.009003	-0.010223	
-0.011139	0.009308	0.005341	-0.012360	
-0.013275	0.007172	0.002899	-0.011749	
-0.014191	0.000458	0.004120	-0.013885	
-0.007172	0.003204	0.012665	-0.003510	
-0.014801	-0.010834	0.007172	-0.008392	
-0.005646	-0.006866	0.012665	-0.011444	
0.004730	-0.006866	0.005951	-0.003204	
0.009613	-0.012054	0.010223	0.005035	
0.008392	-0.019989	0.009918	0.002289	
0.006866	-0.016327	0.006866	-0.000153	
-0.000153	-0.014191	0.004730	-0.012054	
0.000763	-0.012054	0.011139	-0.019989	
-0.005951	-0.016937	0.001678	-0.023346	
0.002899	0.004425	0.008087	-0.004120	
-0.009003	0.010223	0.004425	-0.013275	
-0.011749	0.017242	0.011139	-0.005341	
-0.014801	0.011139	0.010529	0.001984	
-0.008087	0.014801	0.011139	-0.009003	
-0.009613	0.007782	0.006256	-0.018463	
-0.009613	0.009918	0.009918	-0.024567	
-0.012054	0.008698	0.012970	-0.024567	
-0.015411	0.012970	0.010834	-0.002899	
-0.019073	0.010834	0.004730	-0.022430	
-0.026398	0.010223	0.005341	-0.044404	
-0.019684	0.010223	0.011139	-0.032807	
-0.019073	0.007782	0.004425	-0.028534	
-0.001678	0.018768	0.014801	-0.002899	
0.006561	0.006561	0.012054	0.007172	
0.021210	0.011139	0.018463	0.022430	
0.020599	-0.002289	0.009003	0.008392	
0.030670	0.001984	0.011139	0.015106	
0.016327	-0.003815	0.004425	0.010834	
0.009003	0.005951	0.007782	0.010834	
-0.005646	-0.003204	0.007172	0.013885	
-0.019073	-0.003510	0.006561	0.022430	
-0.021820	0.004120	0.002594	0.023651	
-0.017548	0.010529	0.005341	0.022430	
-0.009918	0.007172	0.004120	-0.007477	
-0.005035	0.012665	0.003815	-0.025177	
0.002899	0.011749	0.005341	-0.028839	
0.010834	0.008698	-0.003815	-0.036469	
0.006561	0.013275	-0.002899	-0.048982	
-0.009918	0.006561	0.000458	-0.047761	
-0.013275	0.010529	0.012665	-0.013580	
-0.012360	0.009918	0.017853	0.006256	
-0.012360	0.010223	0.019073	0.020905	
-0.012054	0.008392	0.020294	0.026398	
-0.009613	0.016937	0.018463	0.008087	
-0.018158	0.005646	0.005341	-0.015106	
-0.019989	0.002289	0.005951	-0.011444	
-0.013275	-0.005035	0.005951	-0.005646	
-0.009003	0.002289	0.009003	0.000153	
-0.006866	0.003815	0.016022	-0.004425	
-0.003815	0.004120	0.013275	0.001678	
-0.001068	0.007172	0.014801	-0.002289	
-0.001984	0.004120	0.008392	-0.007782	
-0.001984	0.001678	0.006866	-0.009918	
-0.010223	0.002899	0.005341	-0.012970	
-0.008087	0.005035	0.006256	-0.009918	
-0.005951	0.002899	0.002289	-0.010223	
-0.004120	0.011139	0.006561	0.000153	
-0.003204	0.002899	0.005341	-0.004120	
-0.007477	-0.008392	0.002899	-0.005035	
-0.021210	-0.005646	0.005951	0.000153	
-0.021210	-0.013275	0.005341	-0.003510	
-0.013580	-0.019073	0.001984	-0.008392	
-0.000153	-0.006256	0.009918	-0.005035	
0.005035	-0.004425	0.008392	0.000153	
0.003815	-0.016937	0.007782	0.011139	
-0.005646	-0.021210	0.005341	0.003815	
-0.007782	-0.010834	0.004425	-0.004425	
-0.003204	-0.013885	0.004120	-0.008392	
-0.005341	-0.001373	0.000458	-0.027618	
-0.001984	0.005951	0.007172	-0.026703	
-0.004425	0.001984	0.009308	-0.021515	
-0.001068	0.010223	0.011749	-0.019989	
-0.006866	0.010529	0.005951	-0.015717	
-0.001373	0.012360	0.007782	-0.009308	
-0.002899	0.016022	0.006256	-0.010223	
0.000153	0.022430	0.010529	-0.011139	
-0.018158	0.016327	0.005951	-0.015106	
-0.005035	0.016632	0.009918	-0.006256	
0.003815	0.006561	0.004730	-0.015411	
0.013275	0.012970	0.007172	-0.010223	
0.007172	-0.005035	0.005951	-0.013580	
-0.009613	-0.012970	0.004120	-0.007172	
-0.021210	-0.020294	0.007172	0.004425	
-0.019684	-0.011444	0.010529	0.031281	
-0.017242	0.003204	0.008087	0.058137	
-0.017548	0.001984	0.001984	0.060273	
-0.013885	-0.000763	-0.007477	0.034638	
-0.011139	-0.000763	-0.011139	-0.029449	
0.002289	0.010834	0.005341	-0.099642	
0.002594	0.002899	-0.001373	-0.070954	
0.016327	0.008698	0.019073	-0.003510	
0.012665	0.004120	0.017853	0.010834	
0.016632	0.010834	0.014801	0.024261	
0.004120	0.006561	0.008698	-0.042878	
-0.003815	0.009308	0.012054	-0.088655	
-0.001068	0.012054	0.019379	-0.044709	
0.002594	0.013275	0.025177	0.001678	
-0.003815	0.004425	0.016327	-0.011444	
-0.007477	0.004425	0.012054	-0.008392	
-0.013885	-0.003510	0.005341	-0.026398	
-0.009918	0.000763	0.005951	-0.022430	
-0.011139	-0.004120	0.006256	-0.017548	
-0.001984	-0.001373	0.013275	-0.015717	
-0.000153	0.004730	0.015411	0.002594	
-0.007172	-0.003204	0.007782	0.009308	
-0.004425	0.002289	0.010223	0.004425	
-0.010834	-0.001373	0.004120	0.000153	
-0.009308	0.003204	0.010834	0.008698	
-0.011749	-0.002289	0.006256	0.007172	
-0.011749	-0.002899	0.007782	0.008698	
-0.012360	-0.002289	0.005341	0.005341	
-0.009003	0.008698	0.006561	0.011444	
-0.009003	0.008392	0.002899	0.006866	
-0.001068	0.012970	0.007172	0.012970	
-0.002289	0.011139	0.004425	0.009918	
0.011749	0.010223	0.003204	0.009918	
0.004730	0.008087	0.004730	0.000763	
-0.012054	0.004425	0.002289	-0.007477	
-0.017853	0.004425	0.002899	-0.011749	
-0.015411	0.000153	0.006256	-0.012054	
-0.013885	-0.001373	0.012665	-0.017853	
-0.015106	-0.000153	0.008698	-0.013275	
-0.012360	-0.000153	0.012054	0.000458	
-0.015411	-0.004120	0.006866	-0.007172	
-0.007782	-0.001984	0.008392	-0.003204	
-0.009613	-0.009003	0.004730	-0.008087	
-0.005341	-0.001984	0.010223	-0.012054	
-0.008392	-0.001984	0.002289	-0.015411	
-0.001984	0.004730	0.005951	-0.004120	
-0.004425	-0.000763	0.004730	-0.008392	
-0.001068	0.003815	0.011139	0.001068	
-0.009918	0.001678	0.008087	-0.005341	
-0.005951	0.002289	0.010834	-0.005646	
-0.002289	-0.000763	0.012665	-0.010529	
-0.001984	-0.000763	0.012665	-0.007782	
-0.009613	0.002289	0.009003	-0.012360	
-0.007172	0.002594	0.010223	-0.009003	
0.000153	0.005951	0.012970	-0.006866	
0.000153	0.001068	0.009003	-0.008392	
-0.003510	0.013275	0.012665	0.002594	
-0.001984	0.010223	0.005951	0.010834	
0.004730	0.013885	0.009918	0.039826	
-0.005341	-0.001068	0.001068	0.049287	
0.009918	0.008087	0.004425	0.045320	
-0.002289	-0.002289	-0.008392	-0.016022	
0.002899	0.006561	0.012054	-0.036775	
-0.016022	-0.001373	0.010223	-0.062715	
-0.013275	0.004425	0.013275	-0.050202	
-0.019379	0.003204	0.005951	-0.034638	
-0.011139	0.006561	0.003204	-0.054170	
-0.007477	0.006866	0.004120	-0.063935	
0.001984	0.001678	0.012054	-0.059358	
0.013275	-0.007782	0.009918	-0.052949	
0.017853	-0.009308	0.012360	-0.027924	
0.018158	-0.006256	0.015411	0.014801	
0.001068	-0.012360	0.011749	0.079194	
-0.005951	-0.004425	0.012054	0.060273	
-0.006256	-0.008087	0.007782	-0.003510	
0.002594	0.002289	0.015411	0.014496	
-0.003204	-0.002289	0.006256	0.005035	
-0.002899	0.003815	0.010223	0.013885	
-0.006866	0.004120	0.008392	0.006561	
-0.009003	0.000153	0.006866	0.003204	
-0.016022	-0.001068	0.002594	-0.008087	
-0.005341	0.010529	0.006256	-0.000763	
-0.008087	0.004120	0.003204	-0.015106	
-0.002289	0.003815	0.006256	-0.019073	
-0.003815	0.003815	0.013275	0.000153	
-0.014191	0.004120	0.009003	-0.008392	
-0.014801	0.002594	0.007782	-0.022125	
-0.015717	0.005951	0.005951	-0.025177	
-0.016327	0.009003	0.006866	-0.012360	
-0.016937	0.007782	0.009918	-0.004425	
-0.015106	0.006866	0.009918	-0.005341	
-0.014801	0.004425	0.005341	-0.006256	
-0.008087	0.004425	0.009003	0.001678	
-0.006866	0.000153	0.005951	-0.000153	
0.005035	0.003204	0.008392	-0.000763	
0.001984	0.009918	0.006256	-0.005951	
0.005646	0.019379	0.007782	-0.003204	
0.004730	0.012360	0.008392	-0.001678	
0.001984	0.005646	0.008392	-0.006866	
-0.003815	0.006256	0.008698	-0.011444	
-0.007477	0.004730	0.005341	-0.012054	
-0.005646	-0.000763	0.006866	-0.017853	
-0.009003	0.005646	0.006256	-0.014191	
-0.011444	0.005951	0.009003	-0.009613	
-0.011749	0.006256	0.006866	-0.014496	
-0.005341	0.003204	0.003815	-0.009918	
-0.001068	-0.003510	0.007782	-0.005646	
-0.002289	-0.003815	0.008087	-0.007477	
-0.008087	0.000458	0.008087	-0.014191	
-0.016937	0.007172	0.014191	-0.008392	
-0.025482	-0.011444	0.003204	-0.011444	
-0.019684	-0.023346	0.006866	-0.003204	
-0.023651	-0.015106	0.005951	-0.008392	
-0.006866	-0.000763	0.009003	-0.005951	
-0.003204	0.008392	0.006561	-0.007782	
0.008698	0.025787	0.007172	-0.003204	
0.012360	0.016327	0.006866	-0.007172	
0.019684	0.020905	0.006256	-0.010223	
0.016022	0.020294	0.005341	-0.008087	
0.005035	0.012970	0.004120	-0.012054	
-0.009003	0.012054	0.010834	-0.012054	
-0.010834	0.012054	0.005035	-0.001373	
-0.004425	0.009308	0.008698	-0.005035	
-0.010834	0.004425	0.004120	-0.009308	
-0.006866	0.004425	0.008698	-0.005646	
-0.013275	-0.001678	0.005035	-0.002289	
-0.005951	0.000763	0.011139	-0.002289	
-0.009613	-0.006256	0.004425	-0.017242	
-0.001678	-0.001678	0.011749	-0.007782	
-0.009613	-0.000763	0.011139	0.008392	
-0.005341	0.006256	0.011139	0.007782	
-0.006256	0.008698	0.006561	-0.017242	
-0.001678	0.010223	0.010834	-0.005646	
-0.007782	0.002899	0.008698	-0.005646	
-0.003204	0.005951	0.008698	-0.004120	
-0.004120	-0.003204	0.008392	-0.005035	
-0.003204	-0.002899	0.011139	-0.003510	
-0.006256	0.000763	0.009003	0.002289	
-0.005035	0.006561	0.008698	0.014496	
-0.005035	0.008087	0.005341	0.019989	
-0.006866	0.002594	-0.001068	0.014191	
-0.007782	0.000763	0.001984	0.000458	
-0.011444	-0.006866	0.003815	-0.008392	
-0.007477	-0.004120	0.005341	-0.040742	
-0.009918	-0.009918	0.004120	-0.050508	
-0.001068	-0.005951	0.019073	-0.022125	
-0.006866	-0.003510	0.016022	-0.023346	
-0.009308	-0.003204	0.012970	0.005341	
-0.016022	-0.009308	0.009918	-0.007782	
-0.009613	0.001068	0.011749	0.002289	
-0.004425	0.001068	0.001678	-0.015411	
-0.000763	0.006256	-0.001068	-0.041047	
0.003204	0.004425	0.004120	-0.034638	
0.013885	0.002594	0.005035	-0.007477	
0.007782	-0.005341	0.011139	-0.002289	
-0.005341	-0.007172	0.005035	-0.019989	
-0.007782	-0.001373	0.006866	0.009003	
-0.016022	-0.006866	0.009918	-0.001373	
-0.008392	-0.005341	0.016022	0.002594	
-0.008087	-0.009003	0.010529	-0.001373	
-0.005646	-0.003510	0.010223	-0.004120	
-0.006256	-0.008392	0.011749	-0.005646	
-0.001984	0.004425	0.020294	-0.001678	
-0.008392	0.006866	0.009003	-0.004425	
-0.001373	0.013885	0.012054	0.005951	
-0.009918	0.002289	0.004425	-0.005035	
-0.005035	0.005035	0.007172	-0.004120	
-0.009308	-0.002289	0.004730	-0.005951	
-0.003815	0.006256	0.010834	-0.000763	
-0.004425	0.010223	0.007782	0.000153	
-0.009003	0.010223	0.009308	0.005951	
-0.005646	0.008698	0.009918	0.015411	
-0.003510	0.007172	0.006256	0.021515	
-0.001678	0.003815	0.005951	0.008392	
0.001984	-0.002289	0.004120	-0.000763	
0.000153	0.005646	0.000153	-0.016327	
-0.002289	0.004730	-0.000763	-0.052949	
0.008698	0.012054	0.009918	-0.052339	
-0.006866	0.004730	0.004425	-0.032807	
-0.002899	0.012665	0.018158	-0.001678	
-0.009308	0.007172	0.012665	-0.000763	
-0.005951	0.016632	0.014191	-0.005951	
-0.008087	0.010223	0.006561	-0.015106	
-0.013275	0.013275	0.005035	-0.008087	
-0.016327	0.004730	0.004730	0.008087	
-0.011749	0.004120	0.006561	0.010834	
-0.016022	0.001984	0.010529	-0.000153	
-0.017853	0.003204	0.011139	-0.006866	
-0.019073	0.001068	0.005341	-0.005341	
-0.017548	-0.003204	0.003204	-0.004120	
-0.005646	0.004120	0.011139	0.012665	
-0.001373	-0.001068	0.006256	-0.001984	
0.012360	0.005951	0.011749	-0.011444	
0.008392	0.002899	0.005341	-0.005951	
0.001984	0.002594	0.001984	-0.026398	
-0.012360	0.003815	0.002594	-0.032807	
-0.019684	0.004425	0.002594	-0.025177	
-0.019684	0.002899	0.005341	-0.033418	
-0.009308	0.008698	0.019073	-0.011749	
-0.002899	0.002289	0.019073	-0.021820	
0.014496	0.002289	0.014801	-0.009613	
0.023041	-0.001984	0.005951	-0.000763	
0.027008	-0.005951	0.004120	-0.006866	
0.021210	-0.001984	0.005951	0.010223	
0.007172	-0.002289	0.001984	0.026398	
-0.002899	0.005035	0.002899	0.056916	
-0.017242	0.009003	0.005951	-0.003510	
-0.011139	0.012970	0.008087	-0.024261	
-0.012054	0.007782	0.010529	-0.017242	
-0.008087	0.008698	0.013275	-0.009308	
-0.010834	-0.001984	0.005341	-0.010223	
-0.005341	0.004120	0.012665	-0.008392	
-0.007477	-0.004120	0.010529	-0.007477	
-0.009308	0.001678	0.010529	-0.008087	
-0.015717	-0.003815	0.007172	-0.009308	
-0.013275	0.002289	0.012665	0.000763	
-0.023346	-0.005951	0.006866	-0.004425	
-0.011139	-0.009918	0.004730	-0.009918	
-0.009613	-0.023041	0.003204	-0.009918	
-0.016022	-0.017242	0.006866	-0.008392	
-0.015411	-0.002899	0.011749	-0.007782	
-0.018158	0.001678	0.009003	-0.005341	
-0.009613	0.007172	0.010529	0.003204	
-0.003204	0.013275	0.012054	0.011139	
-0.005035	0.020905	0.010223	0.009308	
-0.007477	0.009003	0.004120	-0.001678	
-0.000763	0.012360	0.008392	0.003815	
-0.005951	0.007172	0.004425	-0.005646	
-0.002289	0.010529	0.012665	0.016022	
-0.005951	0.001068	0.005341	0.021210	
-0.001068	0.004120	0.003204	0.023651	
-0.009003	-0.002289	-0.004120	-0.017853	
-0.011139	-0.001373	0.000458	-0.068818	
-0.005035	-0.003815	0.012970	-0.096590	
-0.001984	-0.004120	0.018768	-0.072175	
0.008087	-0.001984	0.019989	-0.028534	
0.013275	-0.001373	0.014191	0.008698	
0.012360	0.002899	0.013275	0.049592	
0.005646	0.005951	0.010529	0.008392	
0.001678	0.005951	0.008392	0.006561	
-0.005341	0.000763	0.002594	0.016937	
-0.004425	0.002899	0.007782	0.036775	
-0.019379	-0.001373	0.004730	0.061189	
-0.012054	0.002289	0.009918	0.071565	
-0.011749	-0.001984	-0.004425	0.022736	
-0.011444	0.002899	-0.003815	-0.031281	
-0.009613	0.003815	0.007172	-0.122835	
-0.011139	0.004425	0.016022	-0.102694	
-0.009613	0.000458	0.016937	-0.030670	
-0.005951	0.003204	0.021210	-0.007172	
-0.006256	0.007782	0.010529	-0.003510	
-0.015106	0.004120	-0.001373	-0.013275	
-0.010223	0.002594	0.005951	-0.019684	
-0.005341	0.001678	0.003815	-0.025177	
-0.003815	0.005951	0.008392	-0.023346	
0.003204	0.009003	0.009308	-0.030365	
0.004730	0.007172	0.011749	-0.025787	
0.005951	0.004730	0.008392	-0.013580	
0.008698	0.013275	0.009003	0.001068	
0.002899	0.006866	0.001678	0.005951	
0.005646	0.017853	0.011749	0.013885	
-0.006866	0.012360	0.015411	0.008087	
-0.004425	0.022125	0.016632	0.012360	
-0.007172	0.023041	0.007172	0.005951	
-0.001678	0.025787	0.010834	0.011444	
0.000458	0.019073	0.009918	0.022430	
-0.007782	0.004120	0.012970	0.044404	
-0.014801	-0.016937	0.001984	0.039521	
-0.006866	-0.017853	0.004120	0.019379	
-0.009613	-0.018158	0.002594	0.006561	
-0.005035	-0.012970	-0.000153	0.013885	
-0.000153	-0.012054	-0.005341	-0.023651	
0.004120	-0.009918	-0.000153	-0.062715	
0.002899	-0.005646	0.011139	-0.010223	
-0.013885	-0.005341	0.009003	0.004120	
-0.019684	0.002899	0.009003	-0.001984	
-0.016327	0.008698	0.005951	-0.077058	
-0.005951	0.012360	0.003204	-0.122835	
0.000763	0.008698	-0.001068	-0.095064	
0.007172	0.012054	0.011139	-0.060884	
0.001678	-0.001984	0.011139	-0.039521	
0.005035	0.007172	0.019989	0.023651	
-0.007477	0.003815	0.022430	0.052644	
-0.007172	0.014496	0.020599	0.044404	
-0.008087	0.012970	-0.001678	0.029449	
-0.006256	0.012054	-0.001373	0.026093	
-0.005341	0.008698	0.008392	0.023651	
-0.003815	0.012054	0.012054	0.017242	
-0.004425	0.004425	0.008698	0.007172	
-0.007782	0.002899	0.008698	0.006866	
-0.007782	0.002594	0.009918	0.006561	
-0.016022	0.002289	0.004730	0.005035	
-0.024261	0.006866	0.009918	0.008392	
-0.027618	0.001984	0.007782	-0.001678	
-0.021820	0.005951	0.008392	-0.017853	
-0.014801	0.001984	0.004120	-0.024261	
0.012360	0.012360	0.016937	-0.003510	
0.014801	-0.000153	0.010223	-0.015106	
0.026093	-0.001984	0.009003	-0.007172	
0.026398	-0.009308	0.010529	-0.002289	
0.019989	-0.006256	0.004425	0.003815	
0.006561	-0.005646	0.001068	0.008392	
-0.014191	-0.007782	0.005341	0.010223	
-0.020294	-0.011139	0.002594	-0.001678	
-0.018158	-0.012970	-0.001678	-0.004120	
-0.016327	-0.006256	-0.000153	0.017548	
-0.015106	-0.001068	-0.000153	-0.038911	
-0.008392	0.004120	0.009308	-0.097506	
-0.004425	0.000763	0.012665	-0.048982	
-0.001678	0.002899	0.015411	-0.040742	
-0.010223	0.001984	0.010529	-0.035859	
-0.005646	0.008087	0.015411	-0.006256	
-0.009613	0.002899	0.009308	-0.001678	
-0.005341	0.004425	0.009003	-0.005035	
-0.011139	0.003815	0.007172	-0.003510	
-0.010223	0.009003	0.019989	0.001678	
-0.002289	0.012054	0.014801	0.005035	
-0.001984	0.017242	0.011139	0.011139	
-0.006866	0.010529	0.005951	0.005341	
-0.005341	0.008698	0.007782	0.010223	
-0.005951	0.009308	0.010529	0.010223	
-0.013275	0.007782	0.006561	0.002899	
-0.012054	0.007782	0.009308	0.008392	
-0.011139	0.005035	0.004120	-0.000153	
-0.007477	0.007172	0.006561	0.002289	
-0.007477	0.010834	0.005341	0.014801	
-0.003204	0.019989	0.005951	0.038911	
0.001984	0.012970	0.004120	0.061799	
-0.004425	0.008392	0.004425	0.037690	
-0.011749	0.005951	-0.001373	-0.042268	
-0.005035	-0.004120	-0.006866	-0.075227	
-0.006866	-0.011444	-0.004425	-0.060273	
-0.009308	-0.012054	0.005035	-0.031281	
-0.014191	-0.027924	0.000763	-0.023651	
-0.003204	-0.017242	0.013275	-0.001678	
-0.011749	-0.023651	0.018768	0.042573	
-0.009613	-0.020294	0.024567	0.102083	
-0.005646	-0.015106	0.010223	0.040742	
-0.009308	-0.009613	0.001068	-0.068818	
-0.003204	-0.002899	0.004425	-0.069428	
-0.001678	-0.002289	0.008698	-0.044099	
0.000153	0.004120	0.017242	-0.071565	
-0.007477	0.001678	0.002899	-0.086518	
-0.002289	0.006256	0.016632	-0.036775	
-0.016022	0.001068	0.018768	-0.002289	
-0.010223	0.011749	0.019073	-0.011139	
-0.015717	0.012665	0.012970	-0.005646	
-0.013885	0.025787	0.014496	-0.001984	
-0.023956	0.017853	0.009308	-0.002899	
-0.008087	0.014801	0.011139	0.019379	
0.003204	0.002594	0.008698	0.034333	
0.020905	0.004425	0.009003	0.046845	
0.031892	-0.002899	0.002289	0.035554	
0.035859	-0.005341	0.002899	0.015411	
0.021210	-0.007172	0.005951	-0.014191	
0.019073	-0.006256	0.000153	-0.048676	
0.010529	-0.007172	-0.001984	-0.045930	
-0.006866	-0.015106	-0.000153	-0.024567	
-0.012054	0.001068	0.008392	-0.013580	
-0.018158	0.001984	0.009003	0.004425	
-0.013580	0.007782	0.012665	0.004120	
-0.016022	0.006256	0.011139	-0.026093	
-0.003510	0.017853	0.005951	-0.005035	
-0.009613	0.011749	0.000153	-0.031892	
-0.010834	0.016632	0.013885	-0.017242	
-0.012360	0.010223	0.010223	-0.001373	
-0.007477	0.007782	0.012665	0.005341	
-0.021210	-0.006866	0.007782	-0.004425	
-0.022430	0.004120	0.010529	-0.000763	
-0.022125	0.012360	0.010529	0.001068	
-0.021820	0.023041	0.009308	0.001068	
-0.017548	0.025787	0.005951	-0.001678	
-0.023956	0.027924	0.005341	0.000153	
-0.016937	0.019379	0.010223	-0.000763	
-0.009003	0.009308	0.004425	-0.006256	
0.000763	0.016937	0.011749	-0.005951	
0.005035	0.008087	0.006256	-0.017548	
0.008087	0.003204	0.005951	-0.020294	
-0.002289	-0.009613	0.000763	-0.025177	
0.015717	-0.004425	0.012054	-0.000763	
0.019073	-0.012970	0.012665	0.013885	
0.024872	-0.005646	0.012665	0.026703	
0.017853	-0.011139	0.000763	0.029144	
0.013275	0.000763	0.009918	0.051118	
-0.003815	0.000153	0.008392	0.008087	
-0.007477	0.003204	0.010529	0.002594	
-0.008392	-0.000153	0.006256	0.005035	
-0.008087	-0.008392	0.005951	-0.030670	
-0.006256	-0.000153	0.011139	-0.052033	
-0.005341	-0.000763	0.012665	-0.040437	
-0.003815	-0.006866	0.016327	-0.010223	
-0.006866	-0.002899	0.009003	-0.011139	
-0.005035	0.006561	0.016937	-0.012970	
-0.003815	0.005035	0.014801	-0.007172	
-0.001678	0.008087	0.013275	-0.012054	
-0.007477	-0.002289	0.005341	-0.013580	
0.002899	-0.001984	0.016022	-0.005035	
-0.010834	-0.013275	0.006866	-0.010529	
-0.012054	-0.003815	0.010529	-0.001678	
-0.026093	-0.012054	0.008087	-0.004120	
-0.029144	-0.020294	0.012970	0.014496	
-0.026093	-0.023651	0.006866	0.052949	
-0.023346	-0.007172	0.000153	0.080110	
-0.020294	0.002289	-0.011139	0.010223	
-0.009613	0.010834	-0.013580	-0.111849	
-0.001373	0.013275	-0.002899	-0.127413	
0.004425	0.014191	0.019073	0.001678	
0.007782	0.010834	0.018768	0.026703	
0.001068	0.010834	0.005951	0.031281	
-0.003204	0.012054	0.005341	0.004120	
-0.001678	0.008392	0.006561	-0.005035	
-0.002289	0.014191	0.018768	-0.022430	
-0.011444	0.004120	0.004120	-0.036164	
-0.007477	0.004120	0.009918	-0.033723	
-0.007172	0.004120	0.001068	-0.088960	
-0.006866	0.008698	0.002594	-0.025177	
-0.011139	0.004425	0.006256	0.029144	
-0.003204	0.018768	0.014801	-0.033723	
-0.007477	0.011749	0.011139	-0.060578	
-0.004120	0.011749	0.016937	-0.023651	
-0.003204	0.007172	0.014496	0.035249	
0.000458	0.005035	0.010834	0.028839	
-0.005951	0.000153	0.010529	0.021515	
-0.005341	0.003204	0.010834	0.026703	
-0.000153	0.005035	0.009003	-0.000763	
-0.005035	-0.000763	0.001984	-0.026703	
-0.015411	0.007172	0.004120	-0.028229	
-0.029755	-0.001678	0.004730	-0.016327	
-0.022430	0.008698	0.011139	0.005035	
-0.020294	0.003204	0.008087	0.001678	
0.002594	0.006256	0.008698	-0.009613	
0.011139	0.006866	0.007782	0.025177	
0.020294	0.005035	0.010834	0.028229	
0.017242	-0.005646	0.009003	0.012360	
0.023956	0.005951	0.013885	0.028229	
0.008698	-0.012054	0.002289	0.026093	
0.010529	-0.017548	0.007172	-0.006866	
-0.005341	-0.018463	0.002594	-0.011139	
-0.009003	-0.007477	0.008392	0.002594	
-0.012360	0.001984	-0.001678	-0.009308	
-0.011139	0.010223	-0.004425	-0.003510	
-0.005646	0.022736	0.010529	-0.019684	
-0.010834	0.020905	0.010223	-0.040437	
-0.005646	0.018463	0.017242	-0.026093	
-0.009308	0.016327	0.011139	-0.036775	
-0.012054	0.012360	0.008698	-0.024567	
-0.008392	0.010529	0.005341	-0.016022	
-0.006256	0.014496	0.010223	-0.002899	
-0.013885	0.000153	0.008698	-0.003510	
-0.004425	0.003204	0.013275	0.022736	
-0.011444	-0.005341	0.004120	0.028534	
-0.004425	-0.000153	-0.001678	0.014801	
-0.013885	-0.004120	-0.007477	0.000458	
-0.011749	0.006256	0.005341	0.028229	
-0.025482	0.007172	0.005341	0.033723	
-0.023956	0.004120	0.002289	-0.007172	
-0.020294	0.005035	0.012054	-0.056611	
-0.002289	0.009308	0.012970	-0.027618	
0.001984	0.008087	0.013275	0.027313	
0.004120	-0.005341	0.004730	0.002289	
0.007782	-0.000763	0.006866	-0.001678	
0.010529	-0.002289	0.002899	-0.010529	
0.018768	-0.003204	0.010834	-0.073396	
0.013275	-0.009308	0.012970	-0.053254	
0.011749	-0.002289	0.016327	0.003815	
-0.000763	-0.004120	0.011749	-0.040742	
-0.005035	0.001068	0.011139	-0.083161	
-0.010223	-0.001068	0.011749	-0.047761	
-0.005951	0.007172	0.022736	-0.005646	
-0.006866	0.001984	0.021515	0.010834	
0.000153	0.002289	0.019989	0.021210	
-0.001373	0.004730	0.010529	0.005951	
0.004120	0.008087	0.009308	0.018158	
-0.003815	0.009003	0.007782	0.071565	
-0.017242	0.012970	0.000153	0.138704	
-0.012970	0.022430	0.005951	0.121004	
-0.018158	0.010529	-0.014191	0.019989	
-0.019379	0.014191	-0.009003	-0.158542	
-0.031892	-0.001678	0.007782	-0.178073	
-0.023041	-0.003204	0.016327	-0.107576	
-0.023651	0.001678	0.022430	-0.116121	
-0.005035	0.005951	0.027008	-0.052339	
-0.001984	-0.010223	0.019379	0.026703	
0.003204	-0.010834	0.027008	0.054780	
0.000763	-0.024261	0.008392	0.007172	
0.005951	-0.014801	-0.005646	-0.007477	
0.009613	0.005646	-0.009613	0.029755	
0.013275	0.008698	-0.003815	0.002289	
0.003815	0.005646	0.005341	-0.047761	
-0.001068	0.008087	0.014191	-0.027924	
-0.001678	0.004120	0.012054	-0.000763	
-0.005035	0.007172	0.006256	-0.020599	
-0.001068	0.015106	0.006561	0.107576	
-0.003510	0.004425	0.012665	0.161899	
0.001068	-0.001373	0.012970	0.038301	
-0.001984	-0.007477	0.006256	0.023041	
-0.005341	-0.009613	0.000153	-0.026093	
-0.017548	-0.002289	-0.005951	-0.117342	
-0.009613	0.004425	0.010834	-0.093232	
-0.008087	0.000153	0.016327	-0.026093	
-0.007782	0.004730	0.013275	-0.028839	
-0.007782	0.005951	0.016022	-0.016327	
-0.005646	0.012054	0.017242	-0.006866	
-0.007172	0.011139	0.010834	-0.001984	
-0.015106	0.009308	0.009918	-0.001984	
-0.023346	0.006256	0.010529	0.001068	
-0.024872	0.005951	0.007782	-0.001678	
-0.016022	0.011139	0.010529	0.004120	
-0.001678	0.014191	0.010223	0.009308	
0.004730	0.007172	0.008392	0.008698	
0.018463	0.002899	0.007172	0.003204	
0.030975	-0.001678	0.009918	0.002899	
0.027313	-0.015411	0.005341	0.008087	
0.031281	-0.014191	0.010529	0.018463	
0.010223	-0.023956	-0.000763	0.011139	
-0.002289	0.004730	0.005341	0.019989	
-0.019073	0.007172	-0.001068	0.005341	
-0.012360	0.012970	0.005341	-0.004120	
-0.014801	0.005951	0.001678	-0.006866	
-0.011749	0.008392	0.001678	-0.009003	
-0.016327	0.004730	0.005951	-0.021820	
-0.015411	0.014191	0.006256	-0.014496	
-0.023956	0.020294	0.001068	-0.010529	
-0.021210	0.001678	0.006866	0.002289	
-0.012360	-0.005646	0.008698	0.006256	
-0.017242	-0.025482	0.000763	0.024567	
-0.009308	-0.017853	0.015106	0.081635	
-0.005646	-0.008392	0.011139	0.049592	
0.004120	0.000458	0.013275	-0.028534	
0.006256	0.000763	-0.000763	-0.092317	
0.008392	0.009918	0.012665	-0.071565	
-0.009613	-0.001068	0.002899	-0.001373	
-0.013885	0.000458	-0.000153	0.100252	
-0.021820	-0.004120	-0.018158	0.056916	
-0.007782	0.006256	-0.004425	-0.010529	
-0.011749	0.004730	0.000153	-0.138399	
-0.001984	0.014801	0.016327	-0.067903	
-0.011139	0.015717	0.031281	-0.058747	
-0.006866	0.023346	0.030365	0.001068	
-0.006256	0.012970	0.019379	0.073701	
-0.002899	0.009003	0.005341	0.083467	
0.003815	0.008392	-0.007477	-0.083161	
0.004730	0.002594	-0.001068	-0.231785	
0.000153	0.001984	0.024872	-0.105135	
-0.008392	0.005646	0.034944	-0.052033	
0.001984	0.019379	0.027008	-0.005951	
-0.001678	0.023346	0.019379	0.030365	
-0.004425	0.010529	0.019073	0.028229	
-0.001678	-0.006866	0.008698	0.051728	
0.005035	-0.006866	0.013275	0.058137	
-0.001068	-0.015717	0.000458	0.040742	
0.008392	-0.001373	-0.001373	0.027008	
0.009003	0.004120	-0.006866	-0.048066	
0.008392	0.015106	0.008087	-0.093843	
-0.012054	0.008698	0.003204	-0.019684	
-0.026398	0.005951	0.001678	-0.012360	
-0.037690	-0.007172	0.004425	-0.026093	
-0.026093	-0.017548	0.001678	0.023346	
-0.013275	-0.012054	0.006561	0.018768	
-0.005341	-0.023651	0.005951	-0.023346	
0.006256	-0.022430	0.002899	-0.029449	
0.004120	-0.029755	0.000763	0.003815	
0.001678	-0.024261	0.016632	0.018768	
-0.012970	-0.024261	0.012665	-0.009003	
-0.012970	-0.009308	0.007172	0.005341	
-0.009003	-0.001068	0.001068	0.015411	
-0.008087	0.012360	0.011139	0.020905	
-0.017548	0.013885	0.007782	0.016022	
-0.018158	0.014801	0.008698	0.008392	
-0.016022	0.002289	0.004120	-0.005035	
-0.001068	-0.003510	0.002289	-0.009918	
0.004425	0.004425	0.001678	-0.018463	
-0.011749	0.002289	0.007782	-0.014496	
-0.015411	0.007172	0.005951	-0.011139	
-0.001984	0.009003	0.008698	-0.003510	
0.014191	-0.008392	0.009003	0.009308	
0.024261	-0.012054	0.004425	0.031587	
0.019989	0.001678	0.010834	0.092622	
0.012054	0.010223	0.003204	0.132906	
0.013275	0.025787	0.001984	0.026093	
-0.005646	0.023346	-0.009613	-0.096895	
-0.017548	0.030975	0.001068	-0.068818	
-0.024872	0.018158	-0.000153	-0.081635	
-0.011139	0.027313	0.012054	-0.074616	
-0.017548	0.023346	0.014496	0.012054	
-0.007172	0.021820	0.024261	0.043183	
-0.007477	0.008698	0.001678	-0.042878	
-0.001984	0.016022	0.005341	-0.075227	
-0.010834	0.011749	0.003204	-0.045625	
-0.007477	0.010834	0.005341	-0.056916	
-0.009003	0.005035	0.023041	-0.037995	
-0.011139	-0.000763	0.011749	-0.031587	
-0.011749	-0.002289	0.008392	-0.074616	
-0.013275	-0.002899	0.012665	-0.067292	
-0.002289	0.001984	0.023956	-0.012970	
-0.013275	-0.001373	0.012970	-0.028839	
-0.002289	0.013885	0.009918	0.012360	
-0.009308	0.025177	0.014191	0.124056	
-0.007477	0.027008	0.006866	0.098726	
-0.008087	0.005035	0.002289	0.038301	
-0.003204	-0.005035	0.008698	0.060273	
-0.002289	-0.020905	0.006256	0.029755	
0.005646	-0.014191	0.001068	0.062104	
0.001068	-0.015411	-0.013275	0.035859	
-0.006866	-0.014191	-0.005341	-0.124971	
-0.015411	-0.011139	0.014191	-0.164645	
-0.019989	-0.009308	0.025482	-0.008392	
-0.029755	-0.011749	0.016022	-0.003510	
-0.024261	-0.005646	0.007172	-0.002899	
-0.010834	-0.001373	0.004425	-0.008087	
0.001678	-0.002899	0.004730	-0.013275	
0.018158	0.000763	0.007172	0.004120	
0.026703	-0.001984	0.008698	0.015411	
0.031281	0.004730	0.012665	0.004730	
0.017853	-0.009308	0.000458	-0.028534	
0.014801	0.001984	0.005341	-0.019379	
0.000458	0.003204	0.008392	-0.031281	
-0.001068	0.030365	0.016327	0.002594	
-0.039521	0.052949	0.012970	0.035249	
-0.058137	0.029144	0.003815	0.035859	
-0.032502	0.002594	-0.004425	0.011444	
-0.006866	-0.008087	-0.000153	0.016327	
0.026398	-0.019989	0.001678	0.018768	
0.044404	-0.024261	0.006561	0.021210	
0.033723	-0.026093	0.015411	0.066072	
0.025177	-0.024261	0.018158	0.005035	
0.014801	-0.028534	0.010834	-0.063020	
-0.010223	-0.030060	0.000458	-0.060884	
-0.023651	-0.004120	0.009918	-0.027313	
-0.035249	0.012360	0.014496	0.030975	
-0.026398	0.024872	0.010529	0.054170	
-0.015411	0.029755	-0.011444	0.018768	
-0.005951	0.023956	-0.004425	-0.045930	
-0.013580	0.031892	0.004425	-0.056916	
-0.014801	0.033113	0.009918	-0.024261	
-0.023041	0.008698	0.005341	-0.114901	
-0.014801	0.008698	0.015411	-0.135653	
-0.014801	-0.001373	0.023956	-0.058747	
-0.012360	0.002289	0.018158	-0.000763	
-0.013885	0.000458	0.015411	0.018463	
-0.012360	0.004730	0.018463	0.018158	
-0.012970	0.005951	0.009918	0.012360	
-0.016327	0.002899	0.002289	0.018158	
-0.004425	0.013275	0.004730	0.026398	
-0.000763	0.023041	0.007782	0.005035	
0.001678	0.027924	0.009003	-0.007477	
-0.005951	0.001678	-0.005341	0.005341	
-0.001984	-0.023651	-0.001678	-0.019379	
-0.007477	-0.025482	0.001068	-0.066377	
-0.000763	-0.016022	0.014191	-0.009003	
-0.005951	-0.006866	0.019379	0.024567	
-0.003510	0.010223	0.014801	0.015411	
-0.018158	0.022125	0.005951	0.030365	
-0.025482	-0.003510	0.009918	0.038911	
-0.014191	-0.012970	0.001984	0.031587	
-0.016937	-0.001068	0.000458	0.016022	
-0.031587	-0.001678	0.000153	-0.010223	
-0.011139	0.003815	0.004425	-0.009003	
-0.005951	0.003815	0.003815	0.005951	
0.009918	0.012360	0.002899	-0.017853	
0.022125	0.012054	0.008392	-0.030365	
0.019989	0.018158	0.011139	-0.007477	
0.020294	0.016632	0.010223	0.028534	
0.021210	0.013885	0.008087	0.049592	
0.027313	0.012970	0.018463	0.044709	
0.012054	0.003204	0.010834	0.016327	
0.005646	0.013885	-0.005035	0.009918	
-0.008087	-0.012970	-0.033418	-0.086823	
0.001068	0.000458	-0.010834	-0.174106	
0.001984	-0.005341	0.024567	-0.102083	
0.002289	-0.009613	0.041657	-0.017853	
-0.012054	-0.011444	0.040132	0.004120	
-0.023041	-0.003510	0.028229	-0.003815	
-0.054475	0.002594	0.009918	-0.035554	
-0.046540	0.009918	0.009918	-0.038911	
-0.021820	0.005035	0.008698	-0.012360	
-0.001678	0.004120	0.010223	0.002594	
0.029755	0.012665	0.012054	0.026398	
0.025177	0.017242	0.011139	0.012665	
0.012970	0.024567	0.016937	0.030365	
-0.000153	0.016327	0.007172	0.017548	
-0.009308	0.000458	0.003815	-0.048676	
-0.019073	-0.020294	-0.004120	-0.076142	
-0.021210	-0.003204	0.000153	-0.036469	
-0.027008	0.002289	-0.002899	-0.024567	
-0.013275	0.005035	0.006866	-0.027618	
-0.005646	-0.000153	0.016327	-0.013275	
-0.011749	-0.005646	0.024261	0.045930	
-0.033113	-0.017853	0.011139	0.106966	
-0.022430	-0.014191	0.001984	0.049897	
-0.012360	-0.009918	0.005341	0.023346	
-0.001678	-0.003815	0.009918	0.041352	
0.012970	-0.007172	0.007172	0.037690	
0.013275	-0.009003	0.003204	0.041352	
0.024261	0.000458	0.009003	0.043183	
0.030670	-0.000763	0.002594	0.002899	
0.026398	0.011749	-0.005341	-0.060273	
0.012970	0.021820	-0.005341	-0.099337	
0.002289	0.023956	0.008698	-0.056001	
-0.016022	0.010834	0.004730	-0.037385	
-0.025177	0.014191	0.016022	0.016022	
-0.033113	0.002289	0.023041	0.232090	
-0.010223	-0.009918	0.018463	0.276646	
-0.005646	-0.027313	-0.018158	-0.020599	
-0.011139	-0.001373	-0.028229	-0.204623	
-0.029449	0.003204	-0.018463	-0.215610	
-0.027618	0.004120	0.038606	-0.051728	
-0.022430	0.005951	0.045625	0.003815	
0.000458	0.014191	0.026093	-0.007782	
0.009613	0.007782	0.021515	-0.029449	
0.006256	-0.002899	0.006561	-0.042268	
0.014191	0.004120	0.005951	-0.029755	
0.013275	0.000153	-0.003815	-0.043489	
0.012665	0.000153	0.005035	-0.020294	
0.004730	-0.001373	0.018768	0.001678	
0.003204	0.040437	0.025482	-0.000763	
0.003204	0.030365	0.006866	0.037690	
0.008698	0.018158	0.004425	0.059358	
0.002899	0.010223	0.003815	-0.016022	
0.001984	0.006561	0.014191	-0.021820	
-0.009308	-0.001678	0.014801	-0.000153	
-0.006866	0.004425	0.014496	0.025482	
-0.019989	0.002899	0.002899	0.030975	
-0.019379	0.015717	0.008087	-0.002899	
-0.013580	0.008087	-0.007477	0.042573	
-0.015411	0.003204	-0.008392	-0.022430	
-0.020294	0.004730	0.005035	-0.086823	
-0.017853	0.001678	0.009918	-0.044709	
0.000763	-0.000763	0.012970	-0.024567	
0.004425	0.002289	0.014191	-0.019073	
-0.000153	0.005951	0.009918	-0.052033	
-0.006866	0.008698	0.001068	-0.063935	
-0.012054	0.019073	0.012054	-0.017853	
-0.022430	0.008087	0.009003	-0.012360	
-0.016937	0.020294	0.021210	-0.016022	
-0.030365	0.003204	0.014191	-0.017242	
-0.016022	-0.013580	0.016937	-0.012054	
-0.005341	-0.027924	0.005341	-0.009003	
-0.000153	-0.023956	-0.000153	0.032502	
0.001984	-0.023956	-0.008087	0.116426	
0.001678	-0.037385	-0.020294	0.053864	
-0.009003	-0.035249	-0.013885	-0.060578	
-0.001984	-0.019379	0.010223	-0.020599	
0.007782	-0.004120	0.012054	-0.036469	
-0.000153	0.004730	0.007782	-0.019989	
-0.002289	0.014801	0.017853	0.001678	
-0.002289	0.022430	0.022736	0.026703	
-0.005646	0.019073	0.016022	-0.018158	
-0.005341	0.007782	0.011749	-0.008392	
0.003815	0.016632	0.027008	0.051423	
0.005646	0.006866	0.024567	0.051728	
0.001068	0.007782	0.010529	0.026093	
-0.012970	-0.000763	-0.005951	-0.025787	
-0.014191	0.008087	0.003204	-0.042878	
-0.013580	0.016022	0.004120	-0.063935	
-0.003815	0.024567	0.019073	0.003204	
-0.014191	0.012970	0.014191	0.012360	
-0.015106	0.017853	0.006866	-0.009918	
-0.029144	0.003815	-0.005951	-0.050202	
-0.022125	-0.003204	0.001984	-0.036164	
0.001068	0.005035	0.017853	-0.028534	
0.020905	-0.002289	0.017242	-0.038606	
0.031281	-0.001984	0.008392	0.012360	
0.026398	0.002289	0.002899	-0.003510	
0.012054	0.008087	0.004730	-0.010529	
-0.022125	0.005035	0.001984	0.001068	
-0.037080	0.008087	0.010529	0.002594	
-0.045320	-0.001373	0.001068	0.014496	
-0.026093	0.008392	0.006256	0.017242	
-0.011444	0.006256	0.009308	-0.015106	
0.009003	0.008087	0.013275	-0.005341	
0.023041	0.001984	0.005035	0.012970	
0.030670	0.002594	0.002289	0.003815	
0.026398	0.005646	0.006256	-0.012970	
0.030060	0.020905	0.015106	0.001068	
0.014801	0.023956	0.008392	0.016937	
0.000458	0.019379	0.008698	0.005341	
-0.007782	0.013275	0.006256	0.008087	
-0.010223	0.003815	0.006866	-0.017853	
-0.007782	-0.001373	0.014191	-0.027618	
-0.011444	-0.008392	0.004425	0.001984	
-0.016327	-0.011444	0.011139	-0.011749	
-0.023346	-0.019684	0.008392	0.002289	
-0.021210	-0.014191	0.010529	0.037080	
-0.031892	-0.011139	-0.000153	0.000153	
-0.019989	-0.005341	-0.002289	-0.075532	
-0.009918	-0.001373	0.005035	-0.072480	
-0.001373	0.016022	0.023956	-0.030060	
-0.003204	0.010529	0.023041	-0.005035	
-0.003815	0.006561	0.007172	-0.014191	
-0.009613	-0.001373	0.002594	-0.020294	
-0.006866	-0.001984	0.009918	0.012970	
-0.004425	0.000458	0.012665	0.010834	
-0.003510	0.000153	0.005341	0.012054	
-0.001678	0.001984	0.005951	0.015106	
-0.003510	0.006561	0.002899	0.036775	
-0.001678	0.012054	0.005951	0.038301	
-0.005341	0.013885	0.006256	-0.029755	
-0.000153	0.016022	0.013885	-0.023346	
-0.005035	0.009003	0.006866	-0.001984	
0.006256	0.016022	0.004730	-0.016632	
-0.003815	0.002289	0.002289	0.017548	
-0.000763	0.003815	-0.000153	0.001068	
-0.010834	0.001678	-0.008087	-0.070649	
-0.014801	0.018158	0.012665	-0.049897	
-0.013580	-0.011749	0.010529	-0.032197	
0.001678	-0.023956	0.006256	-0.015717	
0.010529	-0.029449	0.011139	0.011444	
0.007782	-0.012360	0.009003	0.014191	
-0.002289	-0.003510	0.004425	-0.006256	
-0.013885	-0.005646	0.010223	0.009918	
-0.023041	0.001984	0.014191	0.021515	
-0.019073	0.003815	0.016327	0.017242	
-0.018463	0.006561	0.010529	-0.088349	
-0.027008	0.010223	0.009918	-0.094759	
-0.047456	0.034638	0.012665	-0.059968	
-0.046540	0.036775	0.019379	-0.005646	
-0.014801	0.005035	0.023041	0.126802	
0.027008	-0.023956	0.005951	0.029449	
0.070344	-0.020294	0.002289	-0.010223	
0.065156	-0.001984	0.005035	0.000153	
0.026398	-0.002899	0.010834	0.016937	
0.011749	-0.027618	0.012970	0.008698	
0.012360	-0.024872	0.012054	0.030975	
-0.016022	-0.019379	0.009308	0.041047	
-0.037385	-0.009613	0.007782	-0.010529	
-0.028839	-0.005341	0.012054	-0.046235	
-0.029755	-0.002289	0.004730	-0.026398	
-0.011139	0.004120	0.008392	0.008698	
-0.005646	0.005035	0.014191	-0.007172	
-0.005646	0.009003	0.013275	-0.009918	
-0.019379	0.004425	0.005035	-0.003204	
-0.013885	0.011749	0.005951	0.059663	
-0.009308	0.020599	0.001068	0.008087	
-0.005646	0.034028	-0.001068	-0.093232	
-0.008392	0.030670	-0.007477	-0.103304	
-0.011749	0.027924	0.002594	-0.097506	
-0.013275	0.028839	0.022736	-0.073091	
-0.011139	0.016937	0.026398	-0.052033	
-0.023041	-0.005646	0.013275	-0.069123	
-0.013275	-0.003204	0.001068	-0.055696	
-0.005035	-0.009613	-0.011139	0.065766	
0.006866	-0.010834	0.001678	0.145723	
0.005646	-0.001678	0.013885	0.033418	
-0.008392	0.009308	0.005035	0.041352	
-0.001068	0.013275	0.004120	0.057527	
0.003204	0.007172	-0.000153	0.022430	
-0.011139	0.018768	-0.004120	-0.005035	
-0.019684	0.016022	-0.005951	-0.029449	
-0.009308	0.005035	0.004120	-0.020599	
-0.000153	-0.005646	0.010529	-0.024567	
0.035249	-0.005035	0.017853	-0.000763	
0.030060	-0.018463	0.009308	0.010834	
0.014191	-0.002289	0.016327	0.026703	
0.005035	-0.004425	0.019989	0.017548	
0.019989	-0.001373	0.007172	0.024261	
-0.008087	-0.012360	-0.005951	-0.011749	
-0.007782	0.011139	0.014801	0.000763	
-0.010834	0.013885	0.013885	0.019989	
-0.013275	0.008087	0.014191	0.008392	
-0.017548	0.000153	0.004425	-0.040742	
-0.011139	0.003204	0.006866	-0.069123	
-0.004120	0.003815	0.011749	-0.038301	
-0.009308	0.007172	0.010223	0.018158	
-0.005035	0.017242	0.011749	-0.013580	
-0.018463	-0.000153	0.004120	-0.019684	
-0.013580	0.000458	0.012970	-0.001678	
-0.011444	0.006561	0.017853	-0.042268	
-0.003204	0.013275	0.015411	-0.031587	
-0.005341	0.002594	0.002289	-0.011749	
-0.008087	-0.001373	0.002899	-0.019379	
-0.025787	-0.006256	0.003815	-0.033723	
-0.027924	-0.011749	0.011139	-0.005646	
-0.037690	-0.023651	0.010223	-0.005951	
-0.021210	-0.012970	0.007172	-0.012054	
-0.002289	-0.003510	0.005341	-0.005035	
0.018463	-0.007782	0.008087	-0.004120	
0.030975	0.000153	0.005035	-0.008392	
0.020905	0.002289	0.005035	0.016327	
0.029755	0.002899	0.013275	0.041963	
0.022430	-0.002289	0.006561	0.062104	
0.002594	0.000458	-0.003204	0.042573	
-0.017853	0.009003	-0.011749	-0.056306	
-0.026093	0.012665	0.001984	-0.075532	
-0.022430	0.008087	0.010529	-0.064851	
-0.010223	0.016022	0.016327	-0.022125	
-0.012360	0.006256	0.008392	0.002289	
-0.014191	0.008087	0.010529	0.030365	
-0.025482	0.001678	0.007782	0.012665	
-0.012360	0.020905	0.016632	-0.002899	
-0.005951	0.050202	0.012665	0.028534	
0.010529	0.039216	0.008087	0.003815	
0.010529	0.020294	0.005951	0.000153	
0.005951	0.033418	-0.001373	-0.003510	
-0.016937	0.034333	-0.001678	-0.062409	
-0.025177	-0.001373	0.005951	-0.047151	
-0.021820	-0.031892	0.018463	-0.025482	
-0.033418	-0.045625	0.024261	-0.012054	
-0.036164	-0.039216	0.022125	0.044709	
-0.048982	-0.031281	0.012665	0.029449	
-0.012970	0.012970	0.022125	-0.016632	
0.004730	-0.008087	0.004120	0.033418	
0.037080	-0.045320	-0.001373	0.038911	
0.028534	-0.057527	-0.006866	-0.087434	
-0.007782	-0.033113	0.010529	-0.092622	
-0.030975	-0.005035	0.005341	-0.019073	
-0.003815	0.025177	0.005035	0.003815	
0.019684	0.023041	0.005341	-0.022430	
0.034333	0.014191	0.006256	-0.025787	
0.037690	0.012970	0.003204	-0.026093	
0.034028	0.030365	0.002594	-0.019989	
0.024567	0.038911	0.004120	-0.025177	
0.001984	0.036164	0.012665	0.021210	
-0.019684	0.031892	0.006866	0.042573	
-0.022430	0.023956	-0.002899	-0.000153	
-0.019379	0.016327	-0.005951	-0.019073	
-0.017853	0.010223	0.001068	-0.040742	
-0.009918	0.014496	0.018768	-0.024567	
-0.015106	0.004120	0.019379	0.052033	
-0.008087	0.004425	0.030670	0.096590	
-0.012970	-0.009918	0.009003	0.011444	
-0.005341	0.001068	0.009003	0.017242	
0.000763	0.000458	0.002899	0.009918	
-0.009613	0.001984	0.006256	-0.011444	
-0.015411	0.000153	0.012665	-0.044709	
-0.015106	0.005646	0.015411	-0.001373	
-0.002899	0.016327	0.013885	-0.012054	
0.003204	-0.001373	0.009308	-0.018463	
-0.012360	-0.009918	0.007172	-0.009918	
-0.033418	-0.017242	0.004730	-0.017853	
-0.023651	-0.009613	0.008698	-0.023346	
-0.027618	-0.010834	-0.001068	-0.011139	
-0.019073	0.000458	0.010529	-0.002289	
-0.019989	-0.005646	0.008392	-0.008392	
-0.009918	-0.006866	0.005035	0.000153	
-0.008087	-0.008087	0.000458	-0.012054	
0.008698	0.003204	0.006561	-0.009308	
0.015717	0.006561	0.010529	0.035859	
0.018463	0.009308	0.009003	0.044709	
-0.000153	0.003815	-0.005035	-0.019073	
-0.003510	0.004425	-0.000763	-0.037995	
-0.011444	-0.007477	-0.000153	-0.021515	
-0.001068	0.008698	0.009918	-0.020294	
-0.001678	0.008392	0.013275	-0.066377	
-0.000153	0.014801	0.018158	-0.022736	
-0.005951	0.012054	0.004120	0.045930	
-0.013580	0.017242	-0.002289	0.008392	
-0.016022	0.020294	-0.000763	-0.070344	
-0.016937	0.023041	0.017853	-0.058442	
-0.035554	0.012360	0.019073	0.019379	
-0.045625	-0.007477	0.010529	0.009918	
-0.016327	-0.023956	0.012665	-0.035554	
0.013275	-0.039521	0.004730	-0.014191	
0.058137	-0.030060	0.004730	0.049287	
0.078584	-0.036469	0.000153	0.035554	
0.057221	-0.034028	0.005341	-0.022125	
0.003815	-0.025787	0.001678	0.000763	
-0.016937	-0.013580	0.000153	-0.016632	
-0.013275	-0.009918	0.009918	-0.074311	
-0.019073	0.005646	0.016022	-0.025177	
-0.029449	0.009308	0.012970	-0.025787	
-0.024261	0.009308	0.011749	-0.027618	
-0.005035	0.023956	0.006866	0.012360	
-0.009003	0.024567	0.009308	0.005951	
-0.012970	0.017242	0.009918	0.022736	
-0.011139	0.023041	0.013275	0.036775	
-0.009308	0.034944	0.005341	0.029144	
-0.011749	0.040437	-0.003510	0.000153	
-0.009613	0.037385	0.005341	-0.030365	
-0.012054	0.031892	0.016632	-0.028229	
-0.004425	0.031892	0.014191	-0.029449	
0.009613	0.000458	0.004730	0.005951	
0.003204	-0.004120	0.009308	-0.006256	
-0.030060	-0.011444	0.007782	-0.003815	
-0.045320	-0.022125	0.011139	0.001678	
-0.037080	-0.019684	0.012360	-0.004120	
-0.023041	-0.024261	0.007782	0.002594	
0.002899	-0.026398	0.010529	0.008698	
0.003204	-0.020905	0.007782	0.012360	
0.000763	-0.019684	0.002899	0.012360	
0.016022	-0.016022	-0.000153	0.003204	
0.028534	-0.005646	0.010529	-0.009308	
0.005646	-0.005035	0.011139	-0.052033	
-0.011139	0.010529	0.012970	-0.012970	
-0.033113	0.011749	0.001984	-0.002899	
-0.031892	0.020294	0.014191	-0.016632	
-0.001068	0.025787	0.008087	-0.017853	
0.033723	0.034333	0.007172	-0.019379	
0.025177	0.033113	0.009918	-0.004425	
0.016937	0.035249	0.015411	0.024567	
0.000763	0.007172	-0.001373	0.021210	
-0.007782	0.012360	0.000153	0.041657	
-0.022430	0.006866	-0.001373	-0.005951	
-0.012360	0.000763	0.002899	-0.066072	
-0.009918	-0.002289	0.008698	-0.042573	
-0.003815	0.007172	0.011749	-0.016022	
0.005035	0.010223	0.011139	0.018463	
0.005951	0.003815	0.006256	0.010834	
0.003204	-0.003510	0.005951	-0.011444	
-0.011444	-0.011444	0.006256	0.035554	
-0.005951	-0.002899	0.009918	0.045320	
-0.009003	-0.006256	-0.001373	-0.017853	
-0.007477	0.006256	0.011139	-0.039521	
-0.007782	0.013885	0.006256	-0.125277	
0.012665	0.036164	0.010834	-0.058137	
0.002594	0.040437	0.016937	-0.031281	
-0.034028	0.037080	0.027008	0.002899	
-0.068513	0.018463	0.017242	0.029755	
-0.081025	-0.014191	0.008698	0.030365	
-0.066987	-0.033723	0.002594	0.012665	
-0.029755	-0.042268	0.004425	0.041047	
-0.007477	-0.057527	-0.001068	-0.004425	
0.020905	-0.059968	-0.004425	-0.096895	
0.051118	-0.066072	-0.005951	0.011444	
0.084687	-0.070649	0.000153	0.032502	
0.099947	-0.047151	0.021210	-0.055085	
0.042268	-0.000763	0.023346	0.006866	
-0.005951	0.030060	0.028534	0.072480	
-0.019073	0.023346	0.011139	0.046845	
-0.008392	0.032502	0.007172	0.023651	
-0.009613	0.035249	-0.002899	-0.009003	
0.002899	0.058137	0.001984	-0.082246	
-0.005951	0.044709	0.013885	-0.089265	
-0.005341	0.025787	0.018463	-0.077363	
-0.012054	0.016632	0.015411	-0.080720	
-0.005341	0.022430	0.013885	-0.068208	
-0.010223	0.016022	0.003204	-0.063020	
-0.030060	0.017242	0.012970	0.030975	
-0.044099	0.004425	0.011749	0.055696	
-0.023041	-0.005035	0.001984	0.144808	
-0.005341	-0.012054	-0.004120	0.126192	
0.006866	-0.005035	-0.005951	0.011139	
0.021210	0.016022	0.005341	-0.036469	
-0.002289	0.008698	-0.002899	-0.103914	
-0.029144	0.005646	0.020905	-0.011444	
-0.036469	-0.004120	0.008392	0.035249	
-0.029755	-0.001984	0.004425	-0.010223	
-0.047456	-0.013580	-0.003204	0.018158	
-0.023956	-0.010834	0.012054	0.051118	
-0.008392	0.003204	0.012970	0.017242	
-0.010834	0.008087	0.009918	0.016327	
-0.016937	-0.000763	-0.005951	0.043794	
0.013275	0.007782	-0.001984	-0.022125	
0.029755	0.011139	0.002289	-0.045625	
0.030365	0.016937	0.017242	-0.100557	
0.026093	0.016937	0.019073	-0.080720	
0.029144	0.027313	0.018463	-0.014191	
0.006866	0.015106	0.013885	-0.038911	
-0.013885	0.011749	0.009308	-0.009003	
-0.015106	-0.005646	0.013885	0.079804	
-0.006256	-0.024261	0.010223	0.043489	
0.012970	-0.003204	0.010529	-0.022430	
0.019684	0.032197	0.011139	-0.023346	
0.006256	0.045320	0.010529	0.013275	
-0.021210	0.019379	-0.005646	0.045320	
-0.030060	-0.007782	-0.011749	-0.013580	
-0.027008	-0.014801	-0.012360	-0.043794	
-0.014801	-0.007172	0.022736	-0.007782	
-0.005646	-0.000763	0.016937	0.027008	
-0.011749	0.013885	-0.003815	0.054780	
-0.030975	0.005951	0.006866	0.079804	
-0.038301	-0.009308	0.006561	0.015411	
-0.027313	-0.021210	-0.001068	-0.081635	
-0.004120	-0.005951	0.001984	-0.084687	
0.016327	0.016632	0.012054	0.007172	
0.021820	0.013885	0.011139	-0.042573	
0.024872	0.010529	0.019073	-0.077363	
0.006561	0.003204	0.012054	-0.011139	
0.003815	0.000763	0.023041	-0.023651	
-0.003510	-0.019073	0.020599	-0.011749	
-0.005951	-0.029449	0.012970	0.029755	
-0.012360	-0.020905	0.000458	0.001678	
-0.005035	0.004730	0.003204	-0.068818	
-0.012054	-0.007172	-0.005646	-0.089875	
0.006256	0.000458	0.004730	-0.123751	
0.003204	-0.004120	0.004730	-0.085298	
0.012970	0.010834	0.006256	-0.081330	
-0.008087	0.054170	0.009308	-0.064851	
-0.012360	0.053559	0.032807	0.149691	
-0.036469	-0.003815	0.029449	0.128633	
-0.047151	-0.025482	-0.000763	0.094454	
-0.024872	-0.017853	0.000458	0.036775	
-0.022125	-0.025177	0.009003	0.053864	
-0.010223	-0.029755	0.004730	0.065766	
-0.019684	-0.030060	-0.000763	0.018463	
-0.028229	-0.023651	0.013275	0.000458	
-0.014801	-0.026398	0.009003	-0.017548	
-0.013275	-0.007172	0.005951	-0.031281	
-0.040437	-0.018463	0.002594	-0.063935	
-0.016327	-0.005341	0.014801	-0.071565	
0.021210	-0.004120	0.018463	-0.012970	
0.066682	0.006256	0.024872	0.001678	
0.069123	0.005951	-0.006866	0.005951	
0.060884	0.014191	-0.012970	-0.022736	
0.028534	0.016022	-0.001068	-0.042268	
-0.001068	0.027008	0.011139	0.005951	
-0.006256	0.029144	0.016937	-0.011139	
-0.016327	0.024567	0.017242	0.052644	
-0.042268	0.016632	0.013275	0.070344	
-0.054170	0.026093	0.016327	-0.005646	
-0.054170	0.025787	0.018463	0.008087	
-0.037385	0.025177	0.005341	-0.007172	
-0.005341	0.031892	0.012054	0.012970	
0.011749	0.011139	-0.001373	0.023651	
0.045320	0.011749	-0.003204	0.012970	
0.046540	0.007172	0.002289	-0.030365	
0.036775	0.008087	0.018768	-0.052644	
0.004730	0.009003	0.012665	-0.017548	
-0.016937	0.016022	-0.005951	-0.013275	
-0.033723	0.008392	-0.031892	-0.097506	
-0.017548	0.023956	-0.012054	-0.186313	
-0.000153	0.016022	0.023041	-0.077363	
0.025177	0.000153	0.045625	0.099031	
-0.003815	-0.024261	0.029449	0.029144	
-0.027008	0.008087	0.011139	0.026093	
-0.023956	0.019073	0.016937	-0.047151	
-0.031892	0.004425	0.017853	-0.026398	
-0.027924	-0.001068	0.011749	0.097811	
-0.022430	-0.023346	0.004425	0.045930	
0.001678	-0.041657	0.004120	0.020905	
0.011139	-0.051728	0.003815	0.061494	
0.026093	-0.051728	0.002289	-0.005646	
0.039216	-0.064546	-0.006256	-0.039521	
0.031281	-0.047151	0.006256	-0.000763	
0.006561	-0.031892	0.006866	-0.005341	
-0.012360	-0.019073	0.010834	-0.025177	
-0.026398	-0.005035	0.006866	-0.015411	
-0.020905	0.012054	0.010529	-0.011749	
-0.020294	0.030670	0.005035	-0.003510	
-0.016937	0.048066	0.004120	-0.009308	
-0.025482	0.041963	0.006866	-0.012054	
-0.027313	0.060884	0.008698	0.005035	
-0.027008	0.062104	0.011139	0.007172	
-0.020905	0.036164	0.008698	0.016022	
-0.014191	0.023041	0.002594	-0.002899	
-0.009003	0.016022	0.000153	-0.031281	
-0.004120	0.016327	0.004120	-0.023651	
-0.016022	0.000763	-0.001678	0.019379	
-0.008087	-0.004120	0.006256	0.057832	
0.014801	-0.009918	0.001678	0.054170	
0.015106	-0.009308	0.004730	-0.038911	
-0.021210	-0.018158	0.000153	-0.157016	
-0.007477	0.013275	0.012970	-0.068818	
-0.001984	0.014496	0.008698	0.014801	
0.001068	0.012970	0.019073	-0.015411	
0.000153	0.011749	0.021210	-0.007172	
0.004730	0.012054	0.010223	0.018768	
0.004120	0.001678	0.007782	0.014801	
-0.011444	-0.006256	0.008392	0.037080	
-0.015411	0.005646	0.009308	0.036775	
-0.015411	0.011749	-0.002899	-0.019684	
0.000458	0.022430	0.001068	-0.070954	
0.013275	0.038911	0.000153	-0.064546	
0.027313	0.020599	0.014191	-0.064546	
0.029144	-0.013580	0.023956	-0.029449	
0.028534	-0.015717	0.019379	0.049897	
0.015106	-0.011444	0.012665	0.048066	
0.015106	-0.018158	0.005951	-0.022125	
0.000458	-0.019989	0.011139	-0.063325	
-0.013580	-0.011139	0.023041	-0.028534	
-0.023651	-0.024261	0.006866	0.012665	
-0.025482	-0.014191	-0.004120	-0.009918	
-0.027008	0.006256	0.001068	-0.008392	
-0.016937	0.014191	-0.003510	-0.013885	
-0.016937	0.004730	0.004730	-0.001068	
-0.013275	0.008698	0.007782	-0.024261	
-0.013275	0.014191	0.013275	-0.059968	
-0.011749	0.012054	0.015411	-0.103304	
-0.006256	0.020905	0.007782	-0.048066	
-0.011749	0.025177	-0.001373	0.074006	
-0.026398	0.027008	0.006866	0.060273	
-0.033113	-0.005035	0.009918	-0.037995	
-0.006256	-0.010834	0.027008	0.017548	
0.002594	-0.015411	0.016327	0.126497	
0.000763	-0.007477	0.014496	0.122835	
-0.008087	-0.006256	0.002289	0.044404	
-0.014191	-0.002289	0.001984	0.021515	
-0.005646	-0.001373	0.004425	0.010529	
0.020905	-0.001373	0.011749	-0.002899	
0.032502	-0.019073	0.015106	-0.009918	
0.018463	-0.027008	0.013275	-0.025482	
-0.015106	-0.027313	0.005951	0.004730	
-0.014191	-0.021515	0.004120	-0.052033	
-0.019684	0.002289	-0.003204	-0.145723	
-0.044099	0.022430	-0.013580	-0.149996	
-0.039826	0.054170	0.016327	-0.099031	
-0.034028	0.042573	0.025482	0.084077	
-0.046235	0.028229	0.015411	0.096895	
-0.030365	0.010223	0.009308	-0.034944	
0.011139	-0.002899	0.017853	0.034638	
0.037080	0.000153	0.020599	0.054170	
0.056306	0.001678	0.016022	0.038301	
0.057221	-0.000763	-0.000763	0.003815	
0.044404	-0.003815	0.004425	-0.031892	
0.011749	-0.006866	0.000153	0.014496	
0.019684	0.004730	0.008392	0.005951	
-0.000153	0.009003	-0.001678	-0.025787	
-0.019684	0.022430	0.000458	0.004730	
-0.033418	0.035249	0.012665	-0.019684	
-0.022125	0.026093	0.011749	0.001678	
-0.012054	-0.001373	0.004425	0.023651	
-0.030365	-0.003510	-0.005341	0.018158	
-0.013885	-0.009613	0.002289	-0.004120	
-0.017242	-0.022125	0.005035	-0.009613	
-0.005646	-0.027008	0.011749	0.023651	
0.022736	-0.055390	-0.016937	-0.001373	
0.018463	-0.047151	-0.000763	-0.076142	
0.004120	-0.025177	0.016937	-0.052949	
0.016327	-0.004120	-0.000763	-0.066682	
0.013275	0.016632	0.006256	-0.039521	
-0.009308	0.034638	0.018463	-0.064546	
-0.029144	0.045320	0.012665	-0.097811	
-0.024872	0.041047	0.014496	-0.092622	
-0.023346	0.026398	0.015411	0.056916	
-0.006866	0.022125	0.016022	0.292211	
-0.008087	0.010223	0.001068	0.068208	
-0.013885	-0.000763	0.006866	-0.155794	
-0.026398	-0.017853	0.022125	-0.156405	
-0.014801	0.003815	0.024261	0.015411	
-0.005035	0.030670	0.022736	0.042878	
-0.011139	0.042878	0.014191	-0.027618	
-0.003510	0.059358	0.013885	0.054170	
-0.013885	0.023041	0.009918	0.075532	
-0.005035	0.000458	0.011139	-0.017548	
-0.002899	-0.004120	-0.000153	-0.039826	
0.004425	0.016937	0.009003	0.005035	
-0.016022	0.048066	0.003204	-0.013885	
-0.046540	0.063325	0.012054	-0.001678	
-0.055390	-0.005035	0.014801	0.002289	
-0.032197	-0.067597	0.014801	-0.025482	
-0.012360	-0.074311	0.014191	-0.020599	
0.008087	-0.049287	0.005035	-0.017853	
-0.005951	-0.049592	-0.007172	-0.001678	
0.009003	-0.053864	-0.005646	0.063935	
0.050202	-0.057221	0.002594	0.071565	
0.054475	-0.067903	-0.007782	0.008698	
0.057221	-0.045320	0.006256	-0.048676	
0.016632	-0.009308	0.005035	-0.050813	
-0.003815	0.024567	0.002899	-0.098726	
-0.010834	0.022430	-0.001068	-0.107576	
-0.009003	0.020599	0.012665	-0.102694	
-0.005341	0.014801	0.024567	-0.027924	
-0.005951	0.018463	0.021515	0.156711	
-0.012970	0.018463	0.012665	0.135042	
-0.017548	0.008087	0.000458	-0.035859	
-0.019989	-0.001068	-0.005341	-0.113070	
-0.004425	0.004120	0.005951	-0.234837	
0.002289	0.013885	0.018158	-0.037385	
-0.027008	0.020294	0.010834	0.121920	
-0.030060	0.028839	0.011749	0.002594	
-0.015717	0.026093	0.003204	-0.043489	
-0.005341	0.020905	0.015411	0.048676	
-0.012360	0.005951	0.010834	0.122225	
-0.043489	0.010223	-0.002289	0.100863	
-0.001068	0.013885	0.012665	0.026398	
0.068513	0.032502	0.020599	0.058137	
0.080110	0.024567	0.014191	0.069123	
0.032807	0.023041	0.010834	0.036469	
-0.033723	0.007782	0.005951	-0.005951	
-0.026398	-0.005035	0.011139	-0.030060	
-0.012360	0.001068	0.009308	-0.015106	
-0.019379	0.012360	0.000458	-0.004425	
-0.026093	0.017853	-0.009613	-0.036775	
-0.021820	0.026398	0.005341	-0.125887	
-0.015106	0.014191	0.014496	-0.135347	
-0.011749	0.010834	0.009003	-0.108187	
-0.006866	0.014801	0.007172	-0.083161	
0.004120	0.020905	0.006866	0.099031	
0.004120	0.010529	0.010529	0.128633	
-0.009613	0.010223	0.011749	0.042573	
-0.015411	0.021820	0.006561	-0.003204	
-0.025787	0.010223	-0.001678	-0.078279	
-0.020294	-0.007172	0.000153	-0.094759	
-0.014801	-0.025177	-0.003204	-0.043794	
0.012665	-0.014801	0.008087	0.041657	
0.005646	-0.011139	0.013275	0.035554	
-0.047151	-0.009613	0.018463	0.072175	
-0.092011	-0.005035	0.012665	0.030365	
-0.072480	0.000153	0.019989	-0.005951	
-0.028229	-0.030975	0.016327	-0.048676	
0.012054	-0.034944	0.005035	-0.074616	
0.037995	-0.022125	0.015411	-0.052644	
0.055085	-0.016937	0.010834	-0.016022	
0.065766	-0.007477	0.011749	0.060273	
0.052949	-0.017853	0.008087	0.072480	
0.025787	-0.023651	-0.001678	0.026093	
0.002289	-0.011749	-0.003815	0.018463	
0.007172	0.014191	0.009003	-0.003204	
0.005646	0.017853	0.010834	0.017548	
0.012665	0.018768	0.011139	-0.007172	
-0.000153	0.004425	0.009918	-0.024261	
-0.005341	0.009003	0.007782	0.043183	
-0.019379	0.012665	-0.005035	-0.003510	
-0.015411	0.021820	0.000153	-0.082246	
-0.019989	0.008087	0.002594	-0.045930	
-0.013580	0.006561	0.011139	-0.034944	
-0.014191	0.007782	0.013275	-0.021210	
-0.011749	0.010223	0.004730	-0.016327	
-0.015106	0.004120	0.002594	-0.014191	
-0.009613	0.012970	0.005035	-0.018463	
-0.016937	0.004425	0.005951	-0.028839	
-0.009613	0.004425	0.009918	-0.003510	
-0.003204	0.008698	0.013885	0.001068	
-0.003204	0.016022	0.011139	-0.002899	
0.000458	0.022430	0.008392	0.036775	
-0.004425	0.014496	-0.007477	-0.020294	
-0.000763	0.007172	0.005951	-0.075532	
-0.014801	-0.005341	0.012054	-0.097506	
-0.009308	-0.005341	0.022125	0.041352	
-0.027313	-0.015106	0.012665	0.110628	
-0.028229	-0.005341	0.009308	0.008392	
-0.026398	-0.007172	0.004120	-0.088349	
-0.011444	-0.008087	0.001678	-0.017853	
0.007782	-0.021210	0.000458	0.016632	
0.019073	-0.020905	-0.001984	0.000153	
0.015717	-0.014191	0.000458	-0.027924	
-0.009003	-0.011444	0.016327	0.045625	
-0.019989	-0.017242	0.014496	0.052949	
-0.014191	-0.009003	0.004120	-0.048676	
-0.004425	0.002289	0.005341	-0.101778	
-0.010223	0.008392	0.010834	-0.081025	
-0.003815	0.013885	0.017242	-0.135653	
-0.001068	0.009918	0.017853	-0.086518	
-0.001678	0.026093	0.020294	-0.080415	
-0.011139	0.027924	0.014496	0.149080	
-0.008087	0.034638	0.015411	0.151522	
-0.036164	0.036469	0.000458	-0.042268	
-0.048371	0.063630	0.005341	0.042878	
-0.059358	0.061189	0.007172	0.017548	
-0.023346	0.059358	0.016632	0.028534	
-0.010223	0.014191	0.020599	-0.006256	
-0.003204	-0.022430	0.016022	-0.014191	
-0.006256	-0.048066	0.011749	0.005341	
0.027313	-0.057527	0.009308	0.011444	
0.071870	-0.059052	0.010529	0.015411	
0.074616	-0.070039	0.015411	0.021210	
0.060578	-0.065766	0.011749	0.021515	
0.046540	-0.053864	-0.001373	0.011444	
0.048371	-0.008087	0.000153	0.013885	
0.004730	0.015717	-0.002899	0.011139	
-0.001678	0.034944	0.003204	0.017548	
-0.009308	0.028839	-0.002289	0.014801	
-0.004425	0.012970	-0.000153	-0.017853	
-0.021515	-0.005035	-0.002289	-0.028839	
-0.022430	0.005951	0.007782	-0.004120	
-0.018158	0.001984	0.007172	-0.030670	
-0.022430	0.007782	0.000458	-0.012054	
-0.020905	0.005951	0.000458	0.008392	
-0.005951	0.009308	0.007172	-0.009003	
-0.011139	0.005951	0.010529	-0.012054	
-0.009003	0.016937	0.012970	-0.027313	
-0.020294	0.026703	0.014801	-0.034028	
-0.037385	0.016327	0.012054	-0.032197	
-0.036164	0.013275	0.021515	-0.021210	
-0.009003	0.020905	0.013275	-0.019073	
0.002594	0.046235	0.015411	0.001068	
-0.027924	0.026093	0.010529	-0.030365	
-0.027008	0.004120	0.012665	-0.016632	
-0.035554	-0.012360	0.004425	-0.017242	
-0.024872	0.003204	0.016022	-0.005646	
-0.027313	-0.003815	0.007172	-0.010529	
-0.011749	-0.002899	0.011749	-0.005341	
0.013885	-0.012360	0.007172	-0.002899	
0.040132	-0.013885	0.005035	0.019073	
0.023041	-0.006256	-0.004425	0.012360	
-0.001984	0.011749	-0.009003	-0.017853	
-0.003510	0.030365	0.009003	-0.030060	
-0.005951	0.025787	0.014191	-0.042268	
-0.007782	0.018768	0.018768	-0.056611	
-0.008087	0.008698	0.017242	-0.059052	
-0.007172	0.006561	0.013275	-0.077058	
-0.008392	0.007172	0.008698	-0.001678	
-0.000153	0.015106	0.007782	0.063325	
-0.008087	0.014191	0.007172	0.058137	
-0.003510	0.025177	0.012054	0.104219	
-0.013885	0.004120	0.005341	0.016632	
-0.027008	0.013885	0.006561	0.020294	
-0.045320	0.019073	-0.004425	-0.003510	
-0.028229	0.011749	-0.004425	-0.059052	
-0.020905	-0.002899	0.001984	-0.082246	
0.008087	-0.010223	0.014496	0.016632	
0.042878	-0.022430	0.006866	0.109713	
0.051118	-0.031281	0.009308	-0.005951	
0.033113	-0.037690	0.012054	-0.031892	
-0.005035	-0.039826	0.012665	-0.034944	
-0.016022	-0.021515	0.014191	-0.017548	
-0.013885	0.000153	0.009918	-0.015106	
0.022736	0.039826	0.018768	0.004120	
0.013275	0.034028	-0.005646	0.018768	
-0.001068	0.002594	0.002594	0.077363	
-0.010223	-0.015717	-0.003204	0.079804	
0.012665	-0.015411	-0.008087	-0.058747	
0.003204	-0.016327	-0.011139	-0.071565	
-0.016937	-0.001068	0.006256	-0.074311	
-0.018463	-0.009003	0.014801	-0.121004	
0.005035	-0.008087	0.018463	-0.091706	
0.010529	-0.008087	0.015411	0.064240	
0.016022	0.010223	0.030975	-0.009918	
0.001068	0.009003	0.034333	-0.112764	
-0.009003	0.020905	0.019989	-0.130465	
-0.012360	0.019989	0.013885	-0.044709	
-0.014191	0.020294	0.009308	0.034638	
-0.023956	0.020905	0.008392	0.178378	
-0.019684	0.007782	0.008087	0.172275	
-0.015411	-0.005341	0.010834	0.005951	
-0.034944	-0.011444	0.008087	0.024567	
-0.018158	0.007172	0.014496	0.006561	
-0.009308	0.008392	0.004120	0.001678	
0.004120	0.019073	0.008698	0.008087	
0.012054	0.018158	0.009918	0.002899	
0.008698	0.009003	0.005035	-0.003510	
-0.000763	0.000763	0.005951	-0.005646	
-0.002899	0.010834	0.010834	-0.003510	
-0.009308	0.022430	0.004120	-0.013580	
-0.009003	0.027313	0.002594	-0.004120	
-0.013885	0.008698	-0.003815	-0.003815	
-0.009003	0.006561	-0.001678	-0.024261	
-0.015106	0.006256	0.001678	-0.013885	
-0.013275	0.004120	0.006256	0.014191	
-0.005646	-0.005951	0.008087	-0.003510	
-0.023651	-0.017548	0.008698	-0.054170	
-0.028229	0.001984	0.010529	-0.014496	
-0.025787	0.005646	0.001984	0.061799	
-0.014801	0.003204	-0.003815	0.085603	
0.004730	0.016632	-0.014496	0.028839	
0.026703	0.030365	-0.001373	-0.114290	
0.016327	0.030365	0.015411	-0.217441	
0.000458	0.039216	0.022430	-0.122835	
-0.028229	0.007782	0.028229	-0.013275	
-0.029449	-0.019989	0.019989	0.028229	
-0.023956	-0.036164	0.010223	0.038301	
-0.023346	-0.014191	-0.001678	-0.003510	
-0.058442	0.013885	0.006866	0.018158	
-0.065766	0.024261	0.025482	0.006561	
0.011749	-0.032197	0.017242	0.011444	
0.091401	-0.074311	0.013275	0.016022	
0.102999	-0.038606	0.008698	0.030365	
0.086823	-0.011444	-0.008087	0.026398	
0.065766	-0.003815	-0.004425	0.011444	
0.013275	-0.029755	-0.006866	0.007172	
-0.003204	-0.053864	0.001678	-0.025177	
-0.037385	-0.056611	0.005951	-0.040742	
-0.037080	-0.013885	0.004120	-0.019684	
-0.023956	0.018768	0.000153	-0.017242	
-0.017548	0.057527	0.006866	-0.034333	
-0.019379	0.079499	0.006561	-0.105135	
-0.003510	0.053559	0.015106	-0.105440	
0.010834	0.011749	0.024872	-0.108187	
0.024872	-0.015411	0.021210	-0.057832	
0.010834	-0.038301	0.001068	0.000153	
-0.024872	-0.053254	-0.003815	0.042573	
-0.054475	-0.046540	0.022736	0.048066	
-0.071870	-0.041352	0.023041	0.099947	
-0.063935	-0.032197	0.016022	0.132601	
-0.055085	-0.023041	0.001068	-0.006256	
-0.032502	0.013275	0.018463	0.005341	
-0.037385	0.048371	0.010834	0.004425	
-0.008087	0.059052	0.014191	0.031281	
0.003204	0.063630	0.008087	0.041352	
-0.000763	0.080110	0.005341	0.037080	
-0.011139	0.054780	0.000458	-0.002899	
-0.003815	0.032502	0.002594	-0.046540	
0.004425	0.022125	0.004730	-0.039521	
0.010834	0.023956	0.009003	-0.034944	
0.030975	0.010834	0.014496	0.066377	
0.020599	-0.034944	0.012665	0.054780	
0.023041	-0.053254	0.001068	-0.059358	
0.032807	-0.041352	0.004425	-0.110933	
0.058137	-0.019379	0.010529	-0.057832	
0.047761	0.012970	0.009308	-0.066072	
0.004730	0.022125	0.007172	-0.116121	
-0.039216	0.002289	0.004425	-0.023346	
-0.045320	0.000153	0.011139	0.102999	
-0.021820	0.023346	0.018463	0.017242	
-0.013275	0.044709	-0.001068	-0.003204	
-0.020294	0.035249	-0.007477	-0.035554	
-0.015106	0.036164	-0.002899	0.067292	
-0.015411	0.022736	0.002289	0.081330	
-0.010223	0.010834	0.006561	-0.126497	
-0.014801	0.005646	0.009918	-0.058747	
-0.017242	0.004425	0.015411	0.033113	
-0.009613	0.005951	0.015411	0.081635	
-0.008087	0.006561	0.010834	0.081941	
-0.003815	0.007782	0.008392	0.008087	
-0.001678	0.003204	0.002899	0.059968	
0.009918	0.005035	0.005341	0.076142	
0.015106	0.008392	0.004120	0.003204	
0.018463	0.007172	0.009918	-0.043489	
0.013885	0.010529	0.007782	-0.038606	
0.004730	0.010834	0.013275	-0.035554	
-0.006256	0.000763	0.015411	-0.023651	
-0.012360	-0.005951	0.012970	0.000153	
-0.016327	0.004425	0.009003	-0.016632	
-0.030060	-0.023651	0.009918	-0.009003	
-0.055085	-0.063325	0.010223	-0.023651	
-0.040437	-0.059052	0.014191	-0.031587	
-0.007477	-0.048676	0.009918	-0.007782	
0.020599	-0.027008	0.010529	-0.017548	
0.006561	-0.016327	0.001984	-0.019073	
-0.004425	0.020294	0.003815	0.023346	
-0.014191	0.019989	0.004425	0.010223	
-0.029449	0.026703	0.005341	-0.013580	
-0.021210	0.014496	0.007172	-0.105440	
-0.008087	-0.009918	0.009918	-0.099031	
0.015717	-0.004120	0.013275	-0.080110	
0.031281	0.012054	0.001678	0.043794	
0.050813	0.027313	-0.006866	0.118563	
0.011139	0.004120	-0.025787	-0.045625	
-0.017548	-0.000153	-0.020599	-0.026398	
0.002594	0.003815	0.008087	0.030975	
0.005951	0.037995	0.032197	-0.025482	
0.004120	0.085298	0.029144	0.008698	
-0.008087	0.049897	0.019073	0.032502	
-0.019073	-0.021515	-0.001068	-0.023651	
-0.015411	-0.046235	0.006561	-0.081025	
-0.020905	-0.060578	0.015411	0.012360	
-0.035249	-0.052644	0.022125	0.012970	
-0.035249	-0.037690	0.018768	-0.041963	
-0.013275	-0.049592	0.009308	-0.015106	
0.000153	-0.052339	0.004730	-0.056001	
-0.005341	-0.066682	0.009918	-0.005646	
0.013885	-0.037080	0.014801	0.066072	
0.046540	0.013275	0.005951	0.022736	
0.036469	0.025787	-0.002899	-0.008392	
0.015106	0.022430	-0.005646	-0.072480	
-0.011444	0.035859	0.014496	-0.081025	
-0.050508	0.041963	0.008392	0.042878	
-0.052949	0.079499	-0.001373	0.059663	
-0.052949	0.076447	-0.005341	-0.168918	
-0.034944	0.054780	0.018463	0.002289	
-0.001678	0.039216	0.016327	0.143282	
0.028839	0.022736	0.013275	0.041657	
0.042878	0.019379	0.020294	-0.020599	
0.028229	0.016022	0.012970	0.020294	
0.003815	0.016937	-0.001984	0.002594	
0.025177	0.019073	-0.002899	-0.006256	
0.042878	0.023346	0.010529	-0.002899	
0.042268	0.020905	0.020599	0.039826	
0.013275	-0.001678	0.014191	-0.070954	
-0.018158	-0.014191	0.012360	-0.060884	
-0.035249	-0.086823	0.010223	-0.025787	
-0.031587	-0.107882	-0.007477	-0.125277	
0.001068	-0.092011	0.002594	-0.076142	
-0.003815	-0.093537	0.016022	-0.014191	
-0.002899	-0.059052	0.015411	-0.015717	
-0.031587	-0.062409	-0.007477	0.028229	
-0.051423	-0.036469	0.004730	0.150301	
-0.049897	0.016937	0.019073	0.073396	
-0.041657	0.060578	0.018158	-0.138704	
-0.039216	0.068513	-0.003815	-0.054780	
-0.024872	0.075532	-0.005646	0.102083	
-0.016327	0.080110	0.006561	-0.081330	
0.005951	0.065461	0.011139	-0.054170	
0.026703	0.048066	0.018768	0.046540	
0.026703	0.024567	0.026093	0.157016	
0.017242	0.021820	0.028534	0.117342	
0.002899	0.023041	0.006256	0.036775	
0.006256	0.021820	0.017242	0.032197	
-0.027618	0.007782	0.000458	0.001678	
-0.039521	0.013275	0.007782	-0.012360	
-0.037690	-0.000763	0.005951	-0.027618	
-0.025177	0.010223	0.002289	-0.063325	
-0.023651	0.016022	-0.000153	-0.048676	
-0.001678	0.023956	0.009918	-0.078584	
0.002594	0.012970	0.006866	-0.052644	
0.005646	0.016632	0.001984	0.101778	
0.006256	-0.001373	0.003204	0.130770	
0.004120	-0.028534	0.005035	0.094149	
-0.007477	-0.037385	0.002289	-0.158237	
-0.003510	-0.009308	0.009003	-0.168918	
0.010529	0.010223	0.016632	-0.089570	
0.005951	-0.001984	0.014801	-0.016632	
-0.001068	-0.005646	0.013885	0.069734	
-0.022430	-0.009918	0.001678	-0.092622	
-0.015717	0.003204	0.000153	-0.186618	
-0.011139	0.010223	-0.009613	-0.101778	
0.014191	0.029144	0.003204	0.152742	
0.037690	0.037995	0.021515	0.265049	
0.050813	0.026093	0.014191	-0.013580	
0.044404	0.026703	-0.005646	-0.022125	
0.000153	0.014191	0.004120	0.056916	
-0.047151	-0.024872	0.009003	-0.025177	
-0.062409	-0.025787	0.024261	-0.060273	
-0.068513	-0.029144	0.020294	-0.082551	
-0.052339	-0.037995	0.001678	-0.099642	
-0.030975	-0.047151	0.001984	-0.055085	
0.023651	-0.035249	0.009003	0.077668	
0.063020	-0.017242	0.018463	0.094454	
0.084382	-0.009918	0.008392	0.003815	
0.059358	0.017853	0.012970	0.139315	
0.005646	0.040742	0.016022	0.035554	
-0.009308	0.069428	0.016937	-0.106050	
-0.019073	0.082551	0.004730	-0.199435	
-0.029755	0.100252	0.009003	-0.097506	
-0.072480	0.046540	0.007172	-0.004120	
-0.076142	0.027008	0.006256	0.088044	
-0.077058	0.009308	-0.006256	-0.073091	
-0.022125	-0.016022	0.001068	-0.103914	
0.032197	-0.006256	0.002289	-0.093232	
0.094759	0.015106	-0.007172	0.068208	
0.112154	-0.033113	0.016327	0.210116	
0.076142	-0.069123	0.027313	0.037690	
0.000153	-0.081941	0.022125	0.115206	
-0.039216	-0.095675	0.005951	0.048982	
-0.048371	-0.089265	0.006256	-0.039826	
-0.057527	-0.068208	0.013275	0.008087	
-0.031892	-0.042573	0.008698	0.071565	
-0.003204	-0.043794	-0.012360	0.095369	
0.037995	-0.013275	-0.009918	-0.034638	
0.008392	0.005951	0.000153	-0.127413	
-0.034333	0.039216	0.024261	-0.118868	
0.002594	0.056611	0.010223	-0.111544	
0.061799	0.105745	0.015411	-0.068818	
0.047761	0.074006	0.024567	0.074311	
-0.002899	0.034638	0.021515	0.041352	
0.008392	0.014191	0.015411	0.038301	
0.048982	0.020294	0.012665	0.014496	
0.048371	0.034028	0.000153	-0.009003	
-0.026093	0.012054	-0.009003	-0.027618	
-0.071565	0.004120	-0.006256	-0.012360	
-0.080415	-0.012970	-0.008392	0.014191	
-0.081025	-0.010834	-0.011139	-0.020599	
-0.033418	-0.036469	0.010223	-0.030670	
0.003204	-0.048371	0.035554	-0.052949	
-0.002899	-0.021210	0.022736	-0.009918	
-0.020294	-0.031587	0.008392	-0.037995	
-0.040437	-0.019379	0.002594	-0.048371	
-0.047761	0.004120	0.020294	-0.046540	
-0.059968	0.004425	0.006256	-0.109102	
-0.071565	0.009003	-0.001678	0.052949	
-0.041657	0.003815	-0.008392	0.141146	
-0.015411	0.014191	-0.005951	0.084382	
-0.000763	0.008698	-0.008392	-0.056611	
0.013275	0.037385	0.016022	-0.084687	
0.002594	0.031892	0.028534	-0.010223	
0.018768	0.016632	0.029144	-0.038606	
0.030365	0.010834	0.014191	-0.205234	
0.016937	0.021820	0.004425	-0.255283	
0.005646	0.028229	0.017242	0.100252	
-0.015106	0.017853	0.011749	0.210116	
-0.023346	0.004120	-0.000763	0.010223	
-0.043489	0.001984	-0.002899	-0.027924	
-0.059968	0.020294	0.005341	-0.168002	
-0.062409	0.022736	0.005951	-0.214999	
-0.042878	0.040437	0.015106	0.060884	
0.002899	0.054170	0.010529	0.276646	
0.059358	0.044709	0.013275	0.183871	
0.089875	0.007782	0.008698	0.059968	
0.074006	0.005035	0.011139	-0.001984	
0.045930	-0.015717	0.013885	-0.073091	
0.030670	-0.054475	0.019989	0.008698	
0.049287	-0.068208	0.000458	0.215610	
0.059052	-0.048371	-0.005951	0.138399	
0.027924	-0.033723	0.007172	-0.129244	
0.016327	-0.016327	0.007782	-0.071565	
0.016632	0.012054	0.009003	-0.022125	
-0.000153	0.030060	0.006561	0.065766	
-0.013885	0.016937	0.013275	0.011444	
-0.023651	0.000153	0.007172	-0.012970	
-0.013275	0.018768	0.009308	0.001678	
-0.030060	0.006561	-0.012054	-0.003510	
-0.023346	0.016327	-0.016937	-0.032197	
-0.027008	0.006561	-0.018463	0.000153	
-0.026398	0.013885	0.016327	-0.202487	
-0.041047	0.001678	0.024872	-0.251621	
-0.038301	0.000458	0.013275	0.111238	
-0.023651	-0.003815	0.011139	0.080720	
-0.002289	-0.005341	0.016937	0.027008	
0.008087	-0.001984	0.017242	-0.027313	
-0.003815	-0.000763	0.012665	-0.057832	
-0.010223	-0.017242	0.014191	0.018158	
-0.023651	-0.027313	0.012665	0.026703	
-0.034028	-0.019684	0.014191	-0.019989	
-0.022125	0.008698	0.008698	-0.000763	
-0.019684	0.019379	0.010529	-0.001678	
-0.001984	0.020599	0.003204	0.043183	
0.007172	0.040742	0.004730	0.012360	
0.012054	0.052033	0.003204	-0.052644	
0.029755	0.040132	0.005341	-0.070649	
0.018463	0.016327	0.002594	-0.064851	
0.005646	0.011749	0.016327	-0.061189	
-0.030365	-0.005341	-0.004120	0.014801	
-0.026093	-0.000763	-0.003815	0.090486	
-0.022430	-0.028229	-0.011139	0.074006	
-0.036469	-0.052339	-0.007172	-0.009003	
-0.043183	-0.064546	0.023041	-0.099031	
-0.049287	-0.048371	0.031281	-0.042268	
-0.047151	-0.025482	0.007782	-0.011444	
-0.041047	-0.022430	0.010834	-0.002899	
-0.021210	-0.003510	0.020599	0.019379	
0.006256	0.013885	0.017853	0.018158	
0.049897	0.021820	0.021210	-0.005035	
0.053254	0.029755	0.011139	-0.029755	
0.030975	0.006561	-0.000763	0.034944	
0.027008	-0.013580	-0.013580	0.024872	
0.005646	0.008698	-0.004425	0.121004	
-0.017242	0.021820	0.005951	0.118258	
-0.012054	0.001984	0.010834	-0.109102	
-0.014191	-0.024261	0.008392	-0.074006	
0.005951	-0.018158	0.018463	-0.021515	
-0.027008	-0.023651	0.019073	0.015106	
-0.021515	0.015106	0.016327	-0.037995	
-0.001678	0.034638	0.002899	-0.074616	
0.041963	0.036775	-0.007782	-0.111849	
0.055390	0.019379	-0.002899	-0.060884	
0.026703	0.018158	0.001068	-0.091096	
0.000153	0.033113	0.002594	-0.023651	
-0.018158	0.045930	0.014191	0.074006	
-0.022125	0.061189	0.029144	0.037080	
-0.023041	0.062104	0.011139	0.124361	
0.005035	0.055390	0.009003	0.072480	
0.019989	0.012970	0.004120	-0.007477	
0.033113	-0.001373	0.004120	-0.129854	
0.010529	-0.017242	0.008698	-0.163730	
-0.005341	-0.010223	0.020905	-0.044404	
-0.032502	0.002289	0.013275	0.012970	
-0.051728	0.014496	-0.005646	0.106966	
-0.062409	0.001984	-0.001984	-0.066377	
-0.026093	-0.000153	0.012665	-0.131380	
0.010223	-0.014801	0.006256	0.012054	
0.035859	-0.014191	0.008698	0.036775	
0.030365	-0.026398	0.002289	0.170138	
0.000458	-0.054475	0.001068	0.095675	
-0.027924	-0.081330	0.007172	-0.075532	
-0.035859	-0.093537	0.003204	-0.001373	
-0.011749	-0.072175	0.022736	0.014191	
-0.001678	-0.035859	0.020599	-0.034333	
0.002899	0.014496	0.012665	-0.076447	
-0.029144	0.024872	0.010223	0.066072	
-0.043489	0.032197	0.010529	0.081635	
-0.057832	0.034028	-0.003204	0.000153	
-0.060578	0.027924	0.001068	0.063325	
-0.072175	0.012970	-0.001373	0.077058	
-0.027924	0.038911	0.004730	0.037690	
0.010529	0.050813	0.004425	-0.009308	
0.034944	0.039826	0.005035	-0.000763	
0.026093	-0.009003	0.004730	-0.133821	
0.036469	-0.019989	-0.001678	-0.007782	
0.104219	-0.003510	-0.005341	0.086213	
0.139009	0.016632	-0.013275	-0.164035	
0.091401	0.072785	-0.015717	-0.218051	
-0.019379	0.085603	0.008087	-0.296483	
-0.091096	0.044709	0.034333	-0.082551	
-0.054170	0.010223	0.030975	0.181125	
0.014801	-0.025482	0.023041	0.184176	
0.032502	-0.068513	0.002594	0.108492	
-0.027008	-0.070344	0.006256	0.020294	
-0.118563	-0.078279	0.012665	0.026703	
-0.095064	-0.086823	0.011139	-0.051728	
-0.023956	-0.079804	0.008698	-0.067292	
0.023041	-0.047761	0.022736	-0.013885	
0.058137	-0.001678	0.022125	-0.009308	
0.064240	0.010529	0.022125	-0.032807	
0.014496	0.011749	0.021210	-0.034028	
-0.018463	0.022736	0.011749	0.006561	
-0.027618	0.005646	0.011139	0.035859	
-0.027924	0.000153	0.002594	-0.016327	
-0.019684	0.031892	0.001068	0.053864	
-0.038301	0.032502	-0.002899	-0.027924	
-0.064546	0.033418	0.004120	-0.071259	
-0.062104	0.033113	0.000153	0.049287	
-0.005341	0.034028	0.002289	0.043489	
0.002899	0.024567	0.008392	0.028534	
0.015717	0.028229	0.018463	0.018463	
0.019989	0.018768	0.009918	0.009003	
0.033113	0.019989	0.012054	0.022736	
0.005646	0.004425	-0.003204	-0.009308	
-0.009613	0.002289	0.001068	-0.016022	
-0.008087	0.019379	-0.000763	-0.042878	
-0.006866	0.036164	-0.011749	-0.069123	
-0.007477	0.025177	-0.007477	-0.225071	
-0.012360	0.023346	0.012665	-0.143892	
-0.030975	0.002594	0.011139	0.074006	
-0.031587	0.002289	-0.000153	-0.017548	
-0.032502	0.019073	0.009003	0.111849	
-0.023956	0.011139	0.025177	-0.201266	
0.009003	0.000153	0.014496	-0.221714	
0.007782	-0.037080	0.001678	0.247044	
0.020294	-0.028534	0.007782	0.267185	
0.038606	-0.015717	0.004425	0.090180	
0.050813	-0.012360	0.016632	0.053864	
0.044099	-0.005646	0.013275	0.007172	
0.045320	0.012360	0.016937	0.015411	
0.018463	0.014496	0.014496	-0.011749	
-0.009918	0.014801	0.013885	-0.013885	
-0.020294	0.012665	0.005341	-0.028534	
-0.027008	0.010223	-0.001068	-0.025482	
-0.028229	0.023956	0.004120	0.009003	
-0.030975	0.013885	0.006866	0.024872	
-0.026093	-0.006256	0.003204	0.013885	
-0.022125	-0.012970	-0.003204	-0.056001	
-0.020294	-0.005341	0.015411	-0.030060	
-0.016327	-0.007782	0.019989	-0.018158	
-0.028229	-0.018463	0.029144	-0.053864	
-0.029144	-0.019073	0.014496	-0.135042	
-0.014191	0.006561	0.011749	-0.083467	
-0.003510	0.019989	0.004425	-0.042268	
0.015717	0.026703	0.001678	0.038301	
-0.017242	0.030670	-0.007782	-0.065156	
-0.045930	0.030670	-0.019684	-0.280918	
-0.082246	-0.003204	-0.029755	-0.159152	
-0.110018	0.000763	0.001678	-0.097506	
-0.096590	-0.028229	0.012970	0.217746	
-0.021210	-0.037690	0.026093	0.174716	
0.067292	-0.034028	0.033113	0.176852	
0.157321	-0.000763	0.009308	0.198520	
0.203708	0.006256	0.000458	0.051118	
0.147249	-0.029144	-0.001068	0.007782	
0.060273	-0.011444	0.009918	-0.043489	
0.019989	-0.005951	0.016327	-0.040437	
-0.012360	0.012360	0.024261	-0.111544	
-0.048371	0.020294	0.025482	-0.047151	
-0.056916	0.020905	0.027313	-0.100863	
-0.062104	-0.010834	0.004120	-0.082551	
-0.042268	-0.025177	0.010529	0.111238	
-0.041047	-0.002899	0.015411	0.074006	
-0.027313	0.022125	0.012665	0.151827	
-0.019989	0.030365	-0.001068	0.088349	
-0.020905	0.027313	-0.008392	-0.044404	
-0.021210	0.011749	-0.005341	-0.076447	
-0.013275	0.012054	0.000153	-0.107882	
-0.015411	0.010834	0.011139	-0.056306	
-0.008087	0.014496	0.010529	0.034944	
-0.007477	0.004425	-0.000153	-0.099031	
0.001068	0.012665	0.013885	-0.020599	
0.002594	0.042268	0.012665	0.276951	
-0.000153	0.039826	-0.001984	0.086518	
0.006256	0.030975	0.012665	0.022430	
-0.004425	0.005951	0.008392	0.057527	
-0.006256	-0.001373	0.001678	-0.030060	
-0.001678	-0.001984	-0.011749	-0.068818	
0.003204	-0.000763	-0.003815	-0.034944	
-0.001068	-0.016327	0.014191	-0.136263	
-0.017242	-0.023346	0.023041	-0.083161	
-0.067292	-0.042268	0.012665	-0.015106	
-0.069123	-0.047761	0.015411	0.090180	
-0.060578	-0.048676	-0.005035	0.101778	
-0.022125	-0.021820	0.012054	-0.022736	
-0.001068	-0.031892	0.022125	-0.041963	
0.034028	-0.036469	-0.006866	-0.030670	
0.042268	-0.010223	-0.007172	-0.023346	
-0.009613	0.000458	0.012665	-0.016327	
-0.004425	0.023346	0.020294	-0.115816	
0.006256	0.030365	0.007782	-0.087434	
0.041047	0.032197	0.014191	-0.007782	
0.052033	0.041963	0.016937	0.005951	
0.030365	0.048371	0.012054	0.004425	
0.005035	0.030975	0.001984	-0.150606	
0.002289	0.019379	0.001068	-0.055696	
-0.019684	0.005035	0.005341	0.089875	
-0.035249	0.005646	0.019073	0.008392	
-0.035859	-0.010834	0.012054	-0.085298	
-0.018158	-0.037080	0.000458	-0.009003	
0.003815	-0.045625	-0.005341	0.027618	
-0.006866	-0.032197	0.000763	0.048066	
-0.005341	-0.022430	0.011139	-0.030670	
0.024261	-0.023651	0.008392	-0.056611	
0.012665	-0.001068	0.013275	0.050202	
-0.019684	0.023956	0.006256	0.035249	
-0.011139	0.029755	0.025177	0.004425	
0.017242	0.024872	0.020294	0.002899	
0.025787	0.003815	0.004425	0.021210	
0.011139	-0.002899	0.008698	0.073396	
-0.009003	0.010834	-0.003204	0.074006	
-0.006866	0.016327	-0.009308	-0.010223	
-0.000153	0.006561	0.001068	-0.057832	
-0.027618	-0.002289	0.010834	-0.037995	
-0.039521	0.010834	0.025482	-0.019989	
-0.067597	0.001068	0.016327	-0.056306	
-0.063020	0.022736	0.017242	-0.001678	
-0.045930	0.041047	-0.001373	-0.080415	
-0.006866	0.042268	-0.000153	-0.135347	
0.042573	0.012970	-0.005341	-0.016022	
0.069123	0.012970	-0.009003	-0.131075	
0.081025	0.032502	-0.000763	-0.037690	
0.070649	0.018768	0.009918	0.036469	
0.027008	-0.006866	0.012054	0.169528	
-0.016022	-0.018158	0.009003	0.011444	
-0.035859	-0.015106	0.021210	0.074006	
-0.055390	-0.017853	0.021210	0.054780	
-0.068208	-0.000763	0.014496	0.064851	
-0.077973	-0.001373	0.006866	0.038301	
-0.048982	-0.001678	0.008392	0.025177	
-0.050508	-0.001678	-0.001373	0.011139	
-0.057221	0.007782	-0.003204	-0.045930	
-0.055390	0.013885	-0.001068	0.052033	
-0.032502	0.010834	0.007172	-0.093232	
0.018158	0.003204	0.017853	-0.160678	
0.086213	0.009308	0.018463	-0.123140	
0.105440	0.022430	0.015411	0.063325	
0.070344	0.037995	0.012665	0.051423	
0.026703	0.023041	0.005341	-0.059968	
-0.004120	0.004730	0.004730	-0.048676	
0.000458	-0.005646	0.010529	0.038911	
-0.007782	-0.019989	0.001984	-0.040437	
-0.008087	-0.017853	0.000458	0.102694	
-0.003510	-0.025787	0.000458	0.072480	
-0.007782	-0.035249	0.008392	-0.016632	
-0.009613	-0.038301	0.011749	-0.018463	
-0.015411	-0.020905	0.027008	-0.019073	
-0.019989	-0.015411	0.017242	-0.091096	
-0.005951	-0.000763	0.005951	-0.059358	
-0.020294	-0.005951	-0.008087	0.042878	
-0.020294	0.010223	-0.002899	0.033723	
-0.015411	0.003204	0.001984	0.057221	
-0.001068	0.012360	0.011749	0.055085	
-0.005646	0.012360	0.016327	0.020905	
-0.015411	0.019989	0.015411	0.033723	
-0.021210	0.027008	0.005341	-0.156405	
-0.001984	0.003815	-0.005341	-0.221104	
0.019684	-0.017853	0.004425	-0.060578	
0.001984	-0.012054	0.002289	-0.015411	
-0.018463	0.016937	0.002289	0.072480	
-0.026398	0.012665	0.006866	0.026398	
-0.048371	-0.005035	0.002594	0.138399	
-0.020905	-0.023346	0.006561	0.081635	
0.039216	-0.012970	0.007172	0.117037	
0.084382	0.002594	0.014191	-0.101168	
0.096590	0.027008	0.028839	-0.084992	
0.042878	0.034944	0.022736	0.018463	
-0.014801	0.017853	0.012054	0.001068	
-0.045014	0.012970	0.013885	0.002594	
-0.061494	0.037385	0.016327	0.008392	
-0.072175	0.041352	0.015411	0.031281	
-0.046235	0.021820	0.000153	0.081941	
-0.027924	0.018158	-0.003815	0.037385	
-0.010223	0.043183	-0.001678	-0.110933	
-0.011749	0.055085	0.001984	-0.272068	
-0.027008	0.034333	-0.003510	-0.334935	
-0.032502	0.038911	0.015411	-0.019989	
-0.073091	0.040437	0.014801	0.187839	
-0.080415	0.016327	0.014191	0.049287	
-0.062104	-0.021210	0.006866	0.072175	
-0.017242	-0.042268	0.009308	0.145723	
0.058747	-0.107576	0.004730	-0.015717	
0.092011	-0.107882	0.012970	-0.155794	
0.080720	-0.080110	0.014801	-0.180820	
0.074006	-0.031281	0.005951	0.030975	
0.048066	0.015106	-0.006866	0.126497	
-0.005341	0.005951	-0.013275	-0.024261	
-0.043794	0.018158	0.007782	0.041352	
-0.020294	0.013885	0.034333	0.046845	
-0.002899	-0.008087	0.032502	0.064851	
-0.009308	-0.003510	0.015411	0.002289	
-0.025482	0.012360	0.025177	0.003815	
0.010529	0.016022	0.013885	-0.009918	
0.051118	0.012665	0.012054	-0.019073	
0.066987	0.004425	0.006561	0.043183	
0.083161	-0.003510	0.002289	0.107882	
0.048676	-0.001068	-0.015717	0.067597	
-0.005951	-0.002899	-0.012360	-0.178073	
-0.055085	-0.019989	0.008392	-0.158237	
-0.107271	-0.020294	0.021210	0.013885	
-0.112459	-0.028229	0.009003	0.058747	
-0.052339	-0.012360	-0.001678	-0.095980	
-0.033113	0.024261	-0.001678	-0.049592	
-0.039521	0.066377	0.007172	-0.003204	
-0.058442	0.087739	0.016022	-0.161899	
-0.067292	0.050813	0.002594	-0.126497	
-0.094149	0.024567	-0.004425	0.200046	
-0.077668	-0.021515	-0.008087	0.248875	
-0.015411	-0.034028	0.017242	0.053864	
0.028229	-0.044099	0.013885	-0.114290	
0.063935	-0.044404	0.001984	-0.094759	
0.094149	-0.043794	0.021210	0.029449	
0.098116	-0.031892	0.054475	0.055085	
0.088960	-0.034028	0.006256	0.038301	
0.103914	0.023041	-0.001068	0.043183	
0.054475	0.072175	0.002289	-0.056306	
0.018463	0.063020	-0.000153	-0.071565	
0.005646	0.043183	0.008087	-0.034333	
-0.023651	0.033113	0.006256	0.012054	
-0.056916	0.023041	0.003204	0.068208	
-0.044404	0.022430	0.009003	-0.022736	
-0.033113	0.008698	0.007782	-0.062715	
-0.026093	0.000153	0.001984	-0.047761	
-0.015106	0.004425	0.006866	-0.002289	
-0.012970	0.011749	-0.000153	0.049592	
-0.001984	0.011749	-0.001373	-0.095064	
0.006561	-0.002289	0.004730	-0.189059	
-0.000763	-0.001068	0.009003	-0.091706	
-0.030365	-0.003815	0.004425	0.022430	
-0.006866	0.007172	0.010834	-0.060884	
0.007172	-0.007782	0.028534	0.090180	
0.018463	0.000458	0.017853	0.067903	
0.022430	0.009308	0.004120	0.153963	
0.008698	0.002289	0.006561	0.193027	
-0.016327	-0.004120	-0.002899	-0.050508	
-0.007782	-0.001984	0.004120	-0.122835	
-0.004120	-0.007782	0.025177	-0.202487	
-0.005035	0.002289	0.018463	-0.050202	
-0.019989	-0.001373	0.009308	0.201877	
-0.017853	-0.030060	0.012360	0.219578	
-0.006256	-0.028229	0.011139	-0.013580	
-0.011139	-0.017242	-0.000153	-0.026093	
-0.015106	-0.004120	0.008392	-0.034333	
-0.017242	-0.000763	0.008698	-0.051728	
-0.022125	-0.005646	0.012665	-0.039826	
-0.025482	-0.031587	0.008087	-0.069123	
-0.020294	-0.025177	0.012665	0.000458	
-0.023346	-0.003815	-0.005951	-0.006256	
-0.011444	0.016937	-0.003510	-0.264133	
0.008392	0.025787	-0.004120	-0.476234	
-0.001068	0.010529	-0.001373	-0.045625	
-0.041352	-0.030060	0.003204	0.188144	
-0.041657	-0.035859	0.001068	0.236973	
-0.032502	-0.005035	0.001068	0.214999	
-0.012360	0.027313	0.028839	0.084382	
0.005951	0.035859	0.036164	0.066072	
0.002594	0.038606	0.004425	0.051118	
-0.005341	0.041963	0.006866	0.036469	
0.001068	0.052339	0.020294	0.071870	
0.005035	0.041963	0.020294	0.100252	
-0.011749	0.023346	0.015411	0.031587	
-0.023041	-0.000763	0.012665	-0.123446	
-0.023956	-0.022125	0.006256	-0.043794	
-0.039826	0.003815	0.006866	0.045320	
-0.061799	0.022736	0.005035	0.024261	
-0.045930	-0.027313	0.004730	0.002594	
-0.011749	-0.034944	-0.002289	-0.048066	
0.026703	0.012970	0.009308	-0.047761	
0.023956	0.012665	0.005951	-0.066377	
0.042878	0.005951	0.008392	-0.059358	
0.030975	-0.002899	0.015411	-0.065156	
0.070344	-0.003815	0.022430	-0.032197	
0.102999	-0.001678	0.004730	0.063630	
0.072480	0.001678	-0.009308	0.045930	
0.024567	-0.005035	-0.009613	-0.076447	
0.010834	0.004425	-0.004425	-0.152132	
0.028229	0.022125	0.021210	-0.059358	
0.025177	0.006561	0.014801	-0.016327	
0.000763	0.004120	0.017853	-0.042878	
-0.055390	-0.012970	0.009918	-0.056611	
-0.056306	-0.000153	-0.003510	-0.013885	
-0.044099	0.001678	-0.004425	-0.076142	
-0.059663	0.022736	0.001678	-0.113680	
-0.077363	0.017853	0.005341	0.084382	
-0.051423	0.007782	0.018463	0.135347	
-0.027924	0.010529	0.016022	-0.156405	
-0.005951	0.013885	0.001678	-0.125582	
-0.008392	0.000153	-0.008392	0.081635	
-0.017853	0.013275	0.001068	0.164950	
-0.013275	0.008087	0.006866	0.186923	
0.018158	-0.021515	0.002289	0.103914	
0.029755	-0.030060	0.004425	0.026703	
0.017853	-0.046540	0.001984	-0.078889	
0.058747	-0.012970	0.032197	-0.127108	
0.062409	-0.017853	0.024872	-0.036775	
0.050202	-0.019073	0.025177	-0.027924	
0.018158	0.002594	0.022125	-0.271458	
-0.002899	0.024872	0.014496	-0.195773	
-0.011444	0.008087	0.000458	0.125277	
-0.031281	-0.020294	-0.000153	-0.101778	
-0.091401	-0.014191	0.004425	0.061799	
-0.086213	-0.001984	0.007172	-0.024567	
-0.029144	0.023346	0.006866	-0.118258	
0.031281	0.037385	0.022125	0.221104	
0.052949	0.046845	0.014191	0.245213	
0.013275	0.057221	0.002594	0.230869	
-0.038911	0.019989	0.007782	0.036775	
-0.048371	0.008698	0.011749	-0.107882	
-0.031587	0.011139	0.018768	0.086823	
-0.029144	0.005035	0.004730	0.048676	
-0.011444	-0.003815	0.008698	-0.017242	
0.005646	-0.020905	0.012665	-0.032807	
0.029755	-0.008087	0.009918	0.031587	
0.006866	-0.015106	-0.002899	0.002289	
-0.006866	0.027008	0.017242	-0.118868	
-0.023651	0.034638	0.017853	-0.155794	
-0.024872	0.040742	0.019073	0.011444	
-0.019379	0.042268	0.002289	0.086518	
-0.003510	0.047456	-0.008392	0.048066	
-0.005341	0.012054	-0.013275	-0.067903	
-0.006256	-0.021515	-0.009003	-0.350500	
-0.012360	-0.037995	-0.008087	-0.438697	
-0.022430	-0.047761	-0.001678	0.105745	
-0.015411	-0.039826	0.019073	0.204623	
-0.027008	-0.040437	0.016937	0.095675	
-0.030975	-0.041047	0.027924	-0.107576	
-0.003815	-0.027008	0.016937	-0.111238	
0.014191	-0.005035	-0.002289	-0.003510	
0.012970	-0.002899	-0.011749	0.121309	
0.010223	-0.011139	0.010529	-0.027618	
0.003204	-0.023651	0.018158	-0.019379	
0.000153	-0.007172	0.021210	0.253757	
-0.017242	-0.010223	0.021210	-0.087434	
-0.009613	0.015106	0.022430	0.139315	
-0.001678	0.022125	0.014801	0.203403	
0.014801	0.028534	0.006561	0.122835	
0.016937	0.009918	0.001068	0.066072	
0.007172	0.019379	-0.000763	0.006866	
0.000458	0.029755	0.003815	-0.070954	
0.019073	0.030365	0.007782	-0.078889	
0.008698	0.028839	0.013275	-0.002289	
-0.000153	0.028839	0.001068	0.051728	
0.004730	0.044099	-0.013885	0.065461	
-0.008087	0.037385	-0.024567	-0.140535	
-0.023651	-0.003510	-0.019989	-0.225376	
-0.022125	-0.016022	0.002594	-0.233006	
0.001984	0.002289	0.033418	-0.059052	
0.008698	-0.016327	0.027313	0.168918	
-0.005341	-0.008087	0.018463	0.095980	
-0.019989	-0.017853	-0.003510	0.066377	
-0.019073	-0.027008	0.000763	-0.033723	
-0.028229	-0.016022	0.027008	-0.250095	
-0.035859	0.003815	0.028534	-0.254673	
-0.058137	0.006561	0.016327	0.080415	
-0.041352	0.010529	0.020294	0.191806	
0.006256	0.020905	0.006866	0.058137	
0.062409	0.032197	0.012054	0.006561	
0.059358	-0.008087	0.016632	0.021515	
0.013885	-0.019684	0.016022	0.051728	
0.010529	-0.019684	0.016327	0.040437	
0.012054	-0.026093	0.001068	-0.057832	
0.035859	-0.023041	0.004730	-0.137789	
0.041352	-0.027313	0.000153	-0.109407	
0.049897	0.002899	0.002289	0.084077	
0.000763	0.045014	0.000763	0.077058	
-0.061189	0.049897	0.000763	-0.024261	
-0.055085	0.023041	-0.009613	0.002899	
-0.033418	0.007172	-0.001984	-0.001984	
-0.023956	0.008392	0.008392	-0.043489	
-0.011444	0.004120	0.014496	-0.083161	
0.012665	-0.019073	0.014801	0.008698	
0.031281	-0.027924	0.008392	-0.017853	
0.024567	-0.026398	0.010834	0.018463	
-0.007172	-0.018463	0.009918	0.022430	
-0.021820	-0.001373	0.005951	-0.000153	
-0.025482	-0.003510	0.007782	0.004120	
-0.027313	-0.001373	0.004730	-0.008392	
-0.031892	0.017853	-0.001678	-0.017853	
-0.023651	0.033418	0.010529	-0.005646	
-0.019379	0.019073	0.009918	-0.002899	
-0.013580	0.019379	0.012970	-0.002899	
-0.015106	0.011749	0.001068	-0.010529	
-0.006866	0.011139	0.002594	-0.007782	
-0.008392	0.005646	0.004730	-0.015411	
-0.012360	0.010223	0.012054	-0.007172	
-0.014191	0.002899	0.003204	-0.015106	
-0.009613	0.015717	0.010223	-0.006256	
-0.013275	0.015717	0.009003	-0.005951	
-0.009918	0.006256	0.004425	-0.005646	
-0.023346	0.004120	0.009308	-0.005035	
-0.030365	-0.009613	0.004730	-0.009308	
-0.023956	-0.019073	0.012054	-0.004120	
-0.023346	-0.019684	0.010223	-0.004120	
-0.008392	-0.015411	0.007172	-0.009308	
0.016327	0.002899	0.009308	-0.004425	
0.034333	-0.000763	0.007782	-0.008392	
0.028534	-0.006866	0.002289	-0.021210	
0.032197	0.012360	0.007782	-0.021820	
0.002289	0.004425	0.004120	-0.024567	
-0.000763	0.007172	0.017853	0.002289	
-0.005951	0.004425	0.012054	0.006866	
-0.019073	0.020599	0.011749	0.003204	
-0.028229	0.002289	0.002289	-0.011139	
-0.009613	0.000153	-0.000153	0.036775	
0.009003	0.000458	-0.008087	0.069428	
0.016632	0.008698	-0.001068	-0.061189	
0.002289	0.005035	0.014801	-0.132601	
-0.005646	0.002289	0.022430	0.055390	
-0.005951	0.001984	0.022736	-0.035859	
-0.019684	-0.007782	0.017242	-0.114901	
-0.016022	-0.007172	0.018768	-0.051728	
-0.007477	-0.005646	0.009003	0.089875	
0.005646	0.008087	0.017853	0.124361	
-0.009003	0.004425	0.002899	0.033723	
-0.005341	0.022430	0.007172	0.035554	
-0.011749	0.012360	-0.000153	-0.023956	
-0.019073	-0.009308	0.006256	-0.000153	
-0.034333	-0.029449	0.015411	-0.028839	
-0.004120	-0.013580	0.024872	-0.010529	
0.023651	-0.008087	0.015411	-0.004425	
0.036469	0.002289	0.010223	-0.027618	
0.017853	0.012360	0.012665	0.003815	
0.004425	0.014801	0.003204	-0.006866	
0.000458	0.009918	0.000763	-0.005646	
0.007782	0.020599	0.011139	-0.026093	
0.013275	0.029755	0.015411	-0.095064	
-0.007782	0.036164	0.005951	-0.143587	
-0.031892	0.023956	0.021515	-0.027924	
-0.041657	-0.005035	0.016937	0.160068	
-0.044404	-0.013885	-0.012360	0.111849	
-0.051423	-0.023651	-0.011749	-0.011139	
-0.020905	-0.009003	0.016937	0.022430	
-0.003204	-0.005646	0.007782	-0.042268	
0.028839	0.010223	0.009918	-0.113375	
0.084077	0.018463	0.012665	-0.182956	
0.077363	0.066377	0.015411	-0.048066	
0.011749	0.112764	0.008698	0.214694	
-0.023651	0.059968	0.008392	0.144503	
-0.058442	-0.012360	0.008698	-0.078279	
-0.061189	-0.028534	0.008698	-0.070649	
-0.074311	-0.032502	0.010223	0.108797	
-0.093843	-0.031587	0.003204	0.105745	
-0.041352	-0.035249	0.008087	0.066987	
0.045014	-0.049897	0.000153	-0.003510	
0.089265	-0.043183	-0.005951	-0.141146	
0.066072	-0.015717	-0.001678	-0.180209	
-0.006866	0.018463	0.011139	0.001068	
-0.047151	0.005035	-0.001373	0.005951	
-0.016937	0.010223	-0.012360	-0.073091	
0.006561	0.005035	0.000458	-0.154573	
0.048371	-0.017853	0.018463	-0.029755	
0.033723	-0.021210	0.015411	0.243992	
0.020599	-0.022125	0.012054	0.060884	
-0.007782	-0.023651	0.000458	-0.092622	
-0.021210	-0.025482	0.014191	-0.059968	
-0.025787	-0.022430	0.019989	-0.104830	
-0.012360	0.018463	0.014191	-0.203097	
-0.020905	0.046235	0.011749	0.002899	
-0.019684	0.050813	0.015411	0.314183	
-0.010223	0.043183	0.020294	0.135042	
-0.010834	0.029144	0.017242	-0.027313	
-0.011139	0.013275	0.017242	-0.040742	
-0.016327	0.012054	0.016327	0.029144	
-0.014801	0.018463	0.006256	0.080415	
-0.010834	0.013275	-0.002289	0.036775	
-0.004425	0.012054	0.002594	0.004120	
-0.017548	0.008087	0.004730	-0.011444	
-0.032502	0.009308	0.012054	-0.013580	
-0.041047	-0.000763	0.010529	0.003204	
-0.025177	0.002289	0.017853	0.013885	
-0.009003	0.011139	0.013885	0.002899	
0.017242	0.010529	0.005341	-0.017853	
0.027313	-0.003510	0.001984	-0.095064	
0.028229	-0.035859	-0.000153	0.000763	
0.028534	-0.037080	-0.004425	0.031281	
0.008392	-0.011444	-0.007477	-0.064851	
-0.014801	0.000153	-0.007477	-0.125887	
-0.027008	0.004425	-0.012054	-0.122835	
-0.008392	0.002289	0.012970	-0.030060	
0.029755	-0.005646	0.009003	0.060273	
0.038301	0.012360	0.001984	0.072175	
0.003815	0.018768	0.008698	-0.121614	
-0.011139	0.024567	0.024567	-0.042573	
-0.022125	-0.000763	0.014801	0.125887	
-0.027618	0.002899	0.011749	0.073091	
-0.022125	0.002594	0.007172	0.010223	
-0.029449	-0.009308	0.014801	-0.004425	
-0.027924	-0.035859	0.018463	-0.040437	
0.005646	-0.038301	0.015106	-0.015106	
0.017242	-0.050202	0.005951	0.009918	
0.030975	-0.030060	0.009003	0.040437	
0.020599	0.000763	0.006256	-0.075532	
-0.001678	0.018768	0.006866	-0.141146	
-0.018158	0.007172	0.008698	-0.037690	
-0.015411	0.018768	0.012970	0.034638	
-0.016022	0.042573	0.008698	0.010834	
-0.003510	0.049897	0.008698	-0.019379	
-0.002899	0.050813	0.017853	0.013885	
-0.008392	0.050813	0.000763	-0.034944	
-0.000763	0.043489	0.001068	-0.080720	
-0.008087	0.026703	0.001678	-0.165256	
-0.023041	0.018768	-0.004120	-0.086823	
-0.021210	0.003204	-0.003510	0.055696	
-0.010223	-0.012360	0.007172	0.141756	
-0.019989	-0.039521	0.003204	0.049592	
-0.013885	-0.027313	0.011139	0.107882	
-0.016937	-0.019379	0.016022	0.103609	
-0.015106	-0.016937	0.011139	0.005035	
0.002594	0.005646	0.014191	-0.044099	
-0.001678	0.016327	0.011749	-0.111238	
-0.001984	0.014801	0.012665	-0.042268	
-0.010223	0.010834	-0.000153	0.037080	
0.005035	0.017853	0.017853	0.144808	
0.009003	0.016327	0.028534	0.036469	
0.009918	0.024567	0.011139	-0.046540	
-0.002899	-0.009003	0.012665	0.057221	
-0.005951	-0.007782	0.016022	-0.048371	
-0.013885	-0.005951	0.009003	-0.128328	
-0.021820	-0.029755	0.014496	0.045320	
-0.049287	-0.034333	0.008392	0.071870	
-0.033418	0.008698	0.011139	0.076142	
-0.023041	0.014801	0.012665	0.058137	
-0.005341	0.006256	0.009918	-0.030060	
0.002899	0.013275	0.001678	-0.022125	
0.015717	0.014801	-0.016022	-0.069123	
0.055390	-0.015411	-0.005341	-0.144808	
0.080720	-0.020905	-0.004425	-0.079194	
0.054475	0.013885	0.011749	0.005951	
-0.005951	0.030060	0.036164	0.016632	
-0.028229	0.036164	0.038911	0.011139	
-0.034944	0.008392	0.001678	-0.060273	
-0.018463	0.011749	-0.006256	0.012054	
-0.016327	0.036469	-0.008087	-0.003510	
-0.014801	0.044099	0.001678	0.014496	
-0.005646	0.009003	0.008392	0.101778	
0.002899	-0.010834	0.021210	-0.017242	
-0.007477	-0.021515	0.006866	-0.038911	
0.013275	-0.019684	-0.004425	0.010834	
-0.001373	-0.001678	0.001678	0.062409	
-0.044404	0.002899	0.008698	0.064851	
-0.072480	-0.024261	0.005951	-0.012054	
-0.047151	-0.020905	0.000153	-0.067292	
-0.015717	-0.008392	0.002594	-0.122835	
0.006866	-0.015106	0.004730	-0.046845	
0.036469	-0.012970	0.021515	0.056001	
0.038606	-0.020294	0.022430	0.076142	
0.026398	-0.017242	0.018768	-0.128023	
0.005646	-0.023651	0.007782	-0.139315	
0.008698	-0.005646	0.002899	-0.070954	
-0.000153	-0.001984	-0.001068	0.057221	
0.000458	0.008087	0.009003	0.125887	
-0.014191	0.005035	0.008087	-0.148470	
-0.019684	0.006866	0.014191	-0.218662	
-0.023346	0.005951	0.000458	-0.229343	
-0.027008	0.013275	0.006561	-0.207370	
-0.023651	0.018158	0.011749	-0.227512	
-0.023956	0.023956	0.010529	-0.321813	
-0.016327	0.004730	-0.010834	0.320287	
0.009918	-0.011444	-0.010223	0.297399	
-0.009308	-0.019684	0.007782	0.383154	
-0.035249	-0.013580	0.012665	0.262302	
-0.042268	-0.001678	0.016327	0.218967	
-0.014801	0.021210	0.016937	0.124666	
0.052033	0.036164	0.030365	-0.051728	
0.084077	0.023956	0.014191	-0.058137	
0.098726	0.060273	0.010223	0.056916	
0.081330	0.081025	-0.003815	0.067292	
0.001068	0.053254	-0.008392	0.003204	
-0.044404	0.011139	-0.010223	-0.095369	
-0.027924	-0.001678	0.014496	-0.092622	
-0.024872	-0.021820	0.021210	-0.064851	
-0.021210	-0.035249	0.013275	0.074616	
-0.029755	-0.047151	0.005341	0.037690	
-0.028229	-0.029449	0.007172	-0.062104	
-0.010834	-0.020905	0.022125	0.022430	
-0.010834	-0.009918	0.019379	-0.006256	
-0.016937	0.031281	0.016632	-0.040437	
-0.027618	0.016327	0.014191	-0.063020	
-0.033113	0.010529	0.010223	-0.055696	
-0.057527	0.022125	0.004120	0.067292	
-0.069734	0.040437	0.004120	0.124971	
-0.028839	0.020599	0.001984	0.059968	
0.049287	0.006561	0.009918	-0.155794	
0.064546	-0.009918	-0.001373	-0.266575	
0.056306	-0.005341	0.014496	-0.205844	
0.038606	0.002899	0.022736	0.063020	
0.010529	0.009003	0.009003	0.086213	
-0.014191	0.005646	0.016022	0.066987	
-0.040132	-0.008087	0.005341	0.044709	
-0.059968	-0.015106	0.000153	-0.001984	
-0.044099	-0.005646	0.001678	-0.007782	
-0.030975	0.037995	-0.001068	-0.053864	
-0.016327	0.052033	0.004120	-0.164340	
-0.007477	0.045930	0.006866	-0.214084	
-0.024872	0.030975	-0.003815	-0.103609	
-0.032502	0.023041	0.002289	0.001678	
-0.027008	-0.005341	0.011749	0.023041	
-0.013885	-0.015106	0.023041	-0.048371	
-0.015717	-0.041963	0.013885	0.158847	
-0.012360	-0.049592	0.007172	0.238194	
-0.035249	-0.075837	0.004730	-0.019989	
-0.009003	-0.070344	0.012665	0.008698	
0.037995	-0.051118	0.000763	0.002289	
0.070039	-0.021210	0.009003	0.015106	
0.055085	-0.024872	0.006256	0.065766	
0.044709	-0.009918	0.007782	-0.001068	
0.028839	0.019989	0.011749	-0.103914	
0.016937	0.034333	0.009003	-0.111544	
0.001068	0.046540	0.003204	0.052949	
-0.011139	0.043183	0.004730	0.065461	
-0.024872	0.037080	-0.005646	-0.149385	
-0.033723	0.052033	-0.011749	-0.204623	
-0.047456	0.018768	-0.001678	0.063325	
-0.031587	0.006256	0.012054	0.125887	
0.005646	0.013885	0.024567	0.043489	
0.005951	0.006561	0.016327	-0.088349	
0.009003	0.008698	0.011139	0.175632	
0.004120	-0.019989	-0.007477	0.278782	
0.060273	-0.042268	0.002899	0.053864	
0.077363	-0.041963	0.001984	0.018768	
0.060273	-0.011139	0.012054	0.066987	
0.009613	-0.002899	0.023346	-0.021210	
-0.014191	0.003815	0.028229	-0.065461	
-0.033418	-0.006866	0.016327	0.045930	
-0.043489	-0.017242	-0.005951	0.116121	
-0.059663	-0.004120	-0.007172	-0.125887	
-0.084992	0.014496	0.002594	-0.188449	
-0.048371	0.007782	0.021515	-0.083772	
-0.026398	-0.012970	0.030670	-0.092317	
-0.003815	-0.019989	0.029144	-0.045625	
0.009918	-0.018158	0.026093	-0.025787	
0.014191	-0.007172	0.014496	-0.047761	
0.020294	0.014496	0.001678	-0.127718	
0.013275	0.047456	-0.003204	-0.082246	
-0.012054	0.020599	-0.005646	-0.007782	
-0.019379	0.013885	0.005951	0.074006	
-0.023956	-0.000153	-0.000763	-0.103609	
-0.043489	0.019989	0.030670	-0.148165	
-0.067903	0.040437	0.041047	0.080110	
-0.060578	0.020905	0.002289	0.143282	
-0.037995	-0.002289	-0.009918	0.104830	
-0.009613	0.010834	-0.004120	0.053254	
0.023651	0.020599	0.001068	-0.014496	
0.053864	0.015106	0.002594	-0.102694	
0.068513	0.030975	0.005951	0.008087	
0.058442	0.028534	0.004120	0.050202	
0.038606	0.034028	0.004730	-0.019379	
0.011749	0.005951	0.000458	-0.027618	
0.015106	0.005951	0.009918	-0.005646	
0.009003	-0.009308	0.000153	-0.013275	
0.019073	-0.009918	0.012360	-0.019684	
0.010223	-0.013580	0.008392	0.028229	
-0.007782	0.006256	0.011139	-0.005951	
-0.031281	-0.001373	-0.006256	-0.059968	
-0.025482	0.001678	0.001068	-0.076753	
-0.014191	0.008698	0.017242	-0.081635	
-0.012360	-0.022430	0.019073	0.081635	
-0.019989	-0.049592	0.012665	0.099947	
-0.039521	-0.036469	0.006866	-0.110933	
-0.037385	-0.032502	0.013275	-0.110933	
-0.019684	-0.027618	0.002289	0.027313	
-0.020294	-0.012360	-0.012360	0.112154	
-0.018158	-0.004120	-0.023956	0.102083	
-0.011749	0.002594	0.004120	-0.063935	
-0.012360	0.021820	0.032807	-0.117647	
-0.023041	0.041352	0.017853	-0.067292	
-0.037995	0.030670	0.002289	-0.110628	
-0.017853	0.036164	0.039216	0.185397	
0.004120	0.008392	0.026398	0.200351	
0.019073	-0.015106	0.016022	0.003815	
0.016632	-0.022125	-0.005646	-0.025177	
0.031281	-0.005341	-0.013885	-0.131990	
0.042268	0.000153	-0.015411	-0.214999	
0.020599	0.037995	-0.003204	-0.239414	
-0.012054	0.020599	0.019989	0.094759	
-0.027313	0.012054	0.033418	0.322423	
-0.034944	0.012970	0.019073	0.116121	
-0.024872	0.008698	0.023956	0.007172	
-0.032197	0.014496	0.024261	-0.032197	
-0.062409	-0.000153	0.009003	-0.046235	
-0.045320	-0.005951	0.014191	0.105745	
0.020599	-0.022125	0.000153	0.118868	
0.081025	-0.008087	0.006256	0.008087	
0.057832	0.012970	0.005951	0.019073	
0.020905	0.036164	0.004120	-0.006866	
-0.012970	0.009003	0.000153	-0.058137	
-0.017548	0.004120	0.012970	0.009918	
-0.016937	0.006256	0.014801	-0.003204	
0.001068	0.036775	0.001068	-0.024261	
0.001678	0.019379	-0.009918	-0.048676	
-0.001068	0.020599	0.001068	-0.191195	
-0.003815	0.017853	0.017853	-0.053254	
-0.006866	-0.013580	0.018158	0.086213	
-0.009003	-0.043183	0.011749	0.041657	
0.005951	-0.048371	0.005341	-0.016327	
-0.005035	-0.045014	0.004120	-0.035554	
-0.040437	-0.047456	0.005951	0.019379	
-0.042268	-0.019379	0.012054	-0.020599	
-0.045625	0.023346	0.004425	-0.032807	
-0.030975	0.031892	0.008392	-0.032502	
-0.005951	0.013885	-0.000153	-0.080415	
0.012665	0.002899	0.005951	-0.005035	
0.013275	0.004120	0.006866	-0.033418	
0.031281	0.023956	0.016022	-0.052949	
0.016937	0.050508	0.021210	0.015411	
-0.013275	0.040132	0.016632	-0.220188	
-0.001984	0.004425	-0.000763	-0.267490	
-0.002289	-0.015717	-0.009003	0.047456	
0.002899	-0.029755	-0.003510	0.275120	
0.015717	-0.024261	0.009918	0.178988	
0.020905	-0.033723	0.010529	-0.015717	
0.021820	-0.041352	0.009308	-0.151827	
0.024261	-0.033723	0.013885	0.143587	
-0.001984	-0.024261	0.003815	0.227818	
-0.043794	-0.001068	0.002899	-0.042878	
-0.066072	0.028839	-0.006866	-0.219578	
-0.065766	0.052339	0.004730	-0.059358	
-0.055696	0.068208	0.010834	0.141756	
-0.058137	0.062715	0.018158	0.150606	
-0.032502	0.057527	0.016327	0.048982	
0.036775	0.026398	0.021210	-0.054780	
0.068513	0.002289	0.014191	-0.074311	
0.084687	-0.001373	0.012054	0.014496	
0.051118	-0.042268	-0.002899	0.058137	
0.012665	-0.045320	-0.004120	0.014496	
-0.023346	-0.026398	-0.004120	-0.075532	
-0.009613	-0.032197	0.003204	-0.166171	
0.017242	-0.057832	0.018768	-0.070954	
-0.001678	-0.041352	0.027008	0.033418	
-0.003815	0.000763	0.019379	0.089265	
0.008392	0.007172	0.009308	0.189670	
0.020599	0.010223	0.016327	0.048982	
0.009918	0.020294	0.005951	-0.173190	
-0.015106	0.028839	0.012970	-0.095980	
-0.027008	0.033113	0.010223	-0.041047	
-0.012054	0.045014	0.006866	-0.048371	
-0.020294	0.031892	0.003204	-0.039521	
-0.019073	0.026703	0.016022	-0.152132	
-0.025177	0.028839	0.006866	-0.189364	
-0.020905	0.030975	0.001984	-0.063325	
-0.023956	0.016937	0.000153	0.105745	
-0.027618	0.005951	0.013885	0.022430	
-0.019379	-0.002899	0.012665	0.033113	
-0.017548	-0.011444	-0.011749	0.009918	
-0.011749	-0.003510	-0.008392	-0.068208	
0.001984	-0.005646	0.004120	0.086823	
0.001984	-0.012970	0.011139	0.276035	
-0.000153	-0.031587	0.017853	0.113985	
0.003204	-0.019379	0.014191	0.048982	
-0.020294	-0.005035	0.003204	0.063325	
-0.025482	0.019989	0.024872	0.021210	
-0.042268	0.006561	0.016937	-0.024567	
-0.031587	-0.005646	0.005341	-0.039521	
-0.026093	-0.020905	-0.014191	-0.019989	
-0.014801	-0.017242	-0.014191	-0.023346	
0.005035	-0.022125	-0.007477	-0.071259	
0.028229	-0.002899	0.018768	-0.133211	
0.019989	0.013885	0.025482	-0.110628	
0.008698	0.005951	0.018768	0.003204	
0.003815	-0.009613	0.019073	0.002289	
-0.010223	0.004120	0.016327	0.020294	
-0.030975	-0.005341	0.022430	-0.014496	
-0.027618	0.008392	0.009003	0.035859	
-0.013885	0.031892	-0.000153	0.099642	
-0.004425	0.025177	0.004425	0.023651	
0.013275	0.017853	0.015411	-0.182345	
0.021820	0.023346	0.012054	-0.153658	
0.034333	0.026398	0.016022	-0.059968	
0.033723	0.019379	0.011749	0.041047	
0.032502	0.048371	0.013275	0.074006	
0.002899	0.037385	0.011139	-0.099947	
0.001984	0.048982	0.009918	-0.113680	
-0.000153	0.059968	0.006866	0.030975	
0.006256	0.052339	0.006256	0.077668	
0.002289	0.002899	-0.001068	-0.003204	
0.001984	-0.013885	-0.008087	0.015106	
-0.022125	-0.028229	-0.000763	0.166781	
-0.034944	-0.039521	0.004120	0.118563	
-0.049592	-0.049897	0.001678	-0.032197	
-0.047456	-0.029449	0.005341	-0.138399	
-0.045625	-0.000153	0.016022	-0.048371	
-0.041047	-0.018463	0.004730	0.018158	
-0.006866	-0.019989	0.009308	-0.091401	
0.014191	-0.032197	0.027924	-0.099337	
0.011139	-0.026398	0.018463	-0.011749	
0.013275	0.001984	-0.004425	0.025482	
0.030060	0.046845	-0.003815	0.124971	
0.011749	0.025177	-0.014496	-0.039521	
-0.039521	-0.017548	0.006561	-0.069428	
-0.049287	-0.031892	0.016937	-0.000153	
0.002594	-0.005035	0.027924	-0.058137	
0.042878	-0.003204	0.022125	0.070039	
0.052949	-0.009918	0.012665	0.127108	
0.046845	-0.034028	0.004730	0.047761	
0.064240	-0.046540	-0.001678	-0.000153	
0.049897	-0.009918	0.002289	-0.001373	
-0.008087	0.036775	-0.001373	-0.015106	
-0.022430	0.030365	0.003204	-0.031892	
-0.030975	0.011749	0.010834	-0.029449	
-0.056916	0.014801	0.017853	-0.007477	
-0.047151	0.017242	0.004730	-0.058137	
-0.025482	0.008087	0.001678	-0.048676	
-0.029755	-0.020905	0.004730	-0.073091	
0.002289	-0.027924	0.014496	-0.117647	
0.039216	-0.006256	0.004730	0.090486	
0.070344	0.023956	0.011749	0.190585	
0.052949	0.033113	0.009918	0.152742	
-0.041047	0.038301	0.012054	-0.071259	
-0.088349	0.046235	0.017853	-0.057221	
-0.041963	0.042573	0.017242	0.038301	
-0.031281	0.049897	0.012665	-0.008087	
-0.035859	0.043489	0.012970	0.012360	
-0.007477	0.046235	0.012054	0.025177	
-0.001373	0.037080	0.001984	-0.036469	
-0.001068	0.003204	-0.006866	-0.053254	
0.007782	-0.000763	-0.001984	0.005035	
0.009613	0.003204	0.002594	-0.119173	
-0.009918	-0.001373	-0.005646	-0.174716	
0.006256	0.012054	0.017853	-0.059968	
0.006561	-0.001068	0.022125	-0.005951	
0.006866	-0.021515	0.031281	0.074311	
0.008392	-0.024872	0.009918	-0.017242	
-0.035554	-0.001373	0.000153	-0.186007	
-0.077363	-0.003510	-0.001068	-0.031587	
-0.070039	-0.027313	0.004730	0.281529	
-0.045930	-0.008392	0.013275	0.047151	
-0.022430	0.034333	0.032807	0.068513	
-0.113985	0.034944	0.018463	0.065766	
-0.169833	-0.023041	0.005341	-0.031587	
-0.077363	-0.050202	0.000458	-0.080110	
0.027008	-0.046235	0.007782	-0.078584	
0.120089	-0.041047	0.004730	-0.011444	
0.124361	-0.035859	-0.002289	0.186923	
0.099031	-0.020294	0.001984	-0.021210	
0.104830	-0.036469	-0.007477	-0.292821	
0.105440	-0.057221	-0.002899	-0.352026	
0.039826	-0.039826	0.001068	-0.192416	
0.000458	0.023956	0.034333	0.009003	
-0.008087	0.026398	0.035554	0.327001	
-0.005341	0.048982	0.026093	0.306554	
-0.005646	0.072785	0.002594	0.079804	
0.001984	0.062715	-0.005646	0.113680	
-0.001678	0.023041	-0.012360	-0.078279	
-0.001984	-0.001373	-0.005035	-0.143587	
-0.013580	-0.014191	0.000458	-0.097200	
-0.026093	-0.023041	0.004425	-0.139925	
-0.045930	-0.033723	0.020294	-0.048676	
-0.055085	-0.032502	0.039216	0.074006	
-0.031892	-0.034944	0.025482	0.159762	
-0.025482	-0.013885	0.004730	0.204013	
-0.020905	-0.004120	0.008392	0.022125	
0.004730	0.022736	0.002594	0.000763	
0.035249	0.042573	0.012054	0.004120	
0.014801	0.024567	0.007172	-0.014496	
-0.012360	0.018768	0.000458	-0.016327	
-0.011749	0.015106	0.003204	0.028534	
-0.006256	0.025177	0.002289	0.072480	
-0.021210	0.014496	-0.000763	0.049897	
-0.022430	0.012054	0.005341	-0.071565	
-0.028229	0.002899	0.004425	-0.100557	
-0.026398	0.003204	0.003204	-0.012054	
-0.037690	0.013885	0.004425	-0.104830	
-0.038911	0.033113	0.003204	-0.029755	
-0.023041	0.025177	0.006256	-0.037690	
0.008087	0.014191	0.009918	-0.063020	
0.034944	0.014496	0.007782	-0.019379	
0.042573	0.003815	0.001678	0.009003	
0.042878	0.011749	0.011139	-0.021515	
0.023956	0.006561	0.001068	-0.079194	
0.010223	0.001068	0.002594	-0.137178	
-0.009308	-0.010834	0.010223	-0.157931	
-0.032197	-0.012360	0.013885	0.025482	
-0.027924	-0.025787	0.010834	0.145113	
-0.016937	-0.026093	0.015411	0.055390	
-0.021515	-0.029144	0.010223	0.022736	
-0.021210	-0.016937	0.003204	-0.003204	
-0.015106	-0.009003	-0.001984	-0.008392	
-0.011139	-0.011444	-0.001068	0.020294	
-0.009918	-0.028229	0.010223	0.024872	
0.005646	-0.018158	0.016327	-0.050813	
-0.017242	-0.005951	0.010529	-0.113070	
0.006561	-0.005035	0.011139	0.038911	
0.055085	0.012970	0.023956	0.019379	
0.045930	0.018768	0.006256	-0.048371	
0.043794	0.020294	0.017853	0.062104	
0.019989	0.013885	0.011749	-0.015106	
0.009918	0.016022	0.000458	-0.080720	
-0.002289	0.010223	-0.001678	-0.132601	
0.006256	0.030365	0.009308	-0.042573	
-0.027008	0.031892	0.006866	0.150301	
-0.052949	0.037385	0.016327	0.128023	
-0.084992	0.038301	0.010529	0.071259	
-0.098421	0.055390	0.016327	0.043794	
-0.066377	0.050508	0.017853	0.040437	
0.000153	0.047456	-0.000153	0.043489	
0.066682	0.030365	-0.003510	0.044709	
0.095064	0.010223	0.001068	-0.035554	
0.068208	-0.011444	0.004120	-0.117342	
0.040437	-0.026093	0.002594	-0.028534	
0.012360	-0.025177	0.004730	0.038301	
-0.016937	-0.043794	-0.001984	0.008698	
-0.039216	-0.059968	0.006256	-0.054170	
-0.063020	-0.067597	0.006866	-0.095675	
-0.070954	-0.048676	0.012054	-0.086823	
-0.050202	-0.028229	0.013885	-0.068818	
-0.023041	0.002289	0.018768	-0.037690	
-0.019073	0.023346	0.018463	-0.033723	
-0.015411	0.053559	0.030670	0.048676	
-0.021515	0.016327	0.009003	0.095980	
-0.001984	0.010834	-0.007172	0.008698	
0.019073	-0.000153	-0.008087	-0.074616	
0.012054	0.010529	-0.000763	-0.008087	
-0.020905	0.005035	-0.003204	0.003815	
-0.022430	-0.013885	0.006256	-0.031587	
-0.009918	-0.032197	0.013885	-0.014496	
0.000763	-0.023651	0.007782	-0.131380	
-0.005646	0.033113	0.016937	-0.099642	
-0.016327	0.063325	0.007782	0.084382	
-0.015411	0.042878	0.020294	0.134737	
-0.010223	0.020294	0.018768	0.129244	
0.014496	0.012665	0.019989	-0.007477	
0.005951	0.012360	0.012054	-0.091706	
-0.004425	0.039826	0.008392	-0.225681	
-0.028229	0.017853	-0.001373	-0.201571	
-0.046540	0.004425	-0.000153	0.008392	
-0.032197	-0.012054	-0.001068	0.362402	
-0.016937	-0.024261	0.000153	0.121920	
0.010529	-0.024261	-0.003204	-0.012970	
0.042573	-0.039521	0.007172	0.072480	
0.061799	-0.056001	0.016937	0.061494	
0.068818	-0.046540	0.013885	-0.054475	
0.048982	-0.035859	0.000763	-0.025787	
0.016632	-0.029755	-0.004425	0.008698	
-0.011139	-0.004425	0.006866	-0.032807	
-0.048066	0.018768	0.006256	-0.026093	
-0.052339	0.021820	-0.000153	0.045320	
-0.023041	-0.004120	-0.015106	-0.054475	
-0.003204	-0.019379	-0.006256	-0.190585	
0.020294	-0.029144	-0.008392	-0.289159	
0.020294	-0.026093	0.016022	-0.241856	
-0.012360	-0.002289	0.032197	0.104830	
-0.007477	0.016327	0.019989	0.094759	
0.008392	0.019989	0.016937	0.193637	
0.003815	0.028229	0.018463	0.174716	
0.002289	0.053559	0.014801	0.063325	
0.006256	0.055085	0.015411	0.098726	
-0.003815	0.019379	0.014801	0.026398	
-0.024872	0.011749	0.008392	-0.040742	
-0.019379	0.028229	0.015411	-0.075532	
-0.045014	0.062409	0.014496	-0.000153	
-0.069428	0.073396	0.012054	0.035554	
-0.071259	0.022430	0.015411	-0.001068	
-0.052949	-0.009308	0.018463	0.010834	
-0.031281	-0.020905	-0.001068	0.024567	
-0.005646	-0.022125	-0.019684	-0.005035	
0.007782	-0.035249	-0.023346	-0.173800	
0.062409	-0.044099	-0.007477	-0.188754	
0.077973	-0.051118	0.004425	0.010223	
0.084077	-0.047456	0.015411	0.042878	
0.052033	-0.029755	0.025482	0.033723	
0.008087	0.022430	0.014801	-0.032197	
-0.006866	0.029144	0.004425	-0.077363	
-0.019989	0.036775	0.012970	0.048066	
