NO_OF_SAMPLES	4800
TOT_NO_OF_CHAN	4
FREQUENCY	960.000000
NO_OF_CALC_CHAN	0
TIME_STAMP	2020-02-08, 11:22:49	226447.36453350
FIRST_SAMPLE	1
DESCRIPTION	--
DATA_INCLUDED	Analog
CHANNEL_NAMES	Vastus Lateralis	Vastus Medialis	Tibialis Anterior	Lateral Gastroc
CHANNEL_GAIN	1	1	1	1
FP_LOCATION
FP_CAL
FP_GAIN
Vastus Lateralis	Vastus Medialis	Tibialis Anterior	Lateral Gastroc	
-0.019379	-0.004120	-0.144503	-0.019073	
-0.027008	-0.004120	-0.103914	-0.012054	
-0.027008	-0.001068	-0.047761	-0.010529	
-0.013885	-0.006866	-0.034333	-0.016022	
0.013275	0.008087	-0.023346	-0.001373	
0.001678	0.013275	0.019073	-0.009003	
-0.006256	0.022125	-0.007477	-0.001678	
0.012360	0.014496	-0.080720	-0.009918	
0.059358	0.012360	-0.055696	-0.004425	
0.134432	-0.002899	-0.065461	-0.001984	
0.182345	-0.002899	-0.006866	0.008087	
0.115206	0.010223	0.141146	0.003204	
0.039216	0.011139	0.074006	-0.004120	
-0.003510	0.006561	0.139925	0.005341	
-0.029755	0.006256	0.083161	-0.004120	
-0.045320	0.010529	-0.204928	-0.001678	
-0.032502	0.012360	0.056916	0.000763	
0.010529	0.012970	0.222019	0.008087	
-0.037080	0.010223	-0.482643	0.000153	
-0.092011	0.012360	-0.161899	0.005035	
-0.116121	0.008087	-0.175326	-0.007477	
-0.116121	-0.000763	-0.168612	0.000763	
-0.092622	-0.008087	0.218967	-0.003510	
-0.056916	-0.013885	0.415198	-0.003510	
-0.064240	-0.017853	0.327916	-0.008087	
-0.080415	-0.000763	0.437476	-0.001984	
-0.078584	0.006256	0.226902	-0.008392	
-0.054170	0.005035	0.143282	-0.005951	
-0.019684	-0.016937	0.091096	-0.013275	
-0.001984	-0.016937	0.011139	-0.010223	
0.008392	-0.012360	0.012054	-0.012054	
0.022430	-0.005341	0.015411	-0.012054	
0.021210	-0.001678	-0.021820	-0.004425	
0.015717	0.004730	-0.036775	-0.015106	
0.010223	0.016022	0.040437	-0.006866	
-0.019684	0.016937	0.089570	-0.003204	
-0.027618	0.015717	0.021210	-0.006866	
0.016327	0.018768	-0.248569	-0.001678	
0.032502	0.010223	-0.391394	-0.001373	
0.030365	0.002289	-0.243687	-0.005951	
0.039216	0.003815	-0.164035	-0.012360	
0.027924	-0.010834	0.013885	-0.020294	
0.039216	-0.003510	0.266880	-0.012970	
0.034638	-0.005035	0.041352	-0.016327	
0.036469	0.000763	-0.128939	-0.007477	
0.041047	0.002289	0.201266	-0.013275	
0.001984	0.014496	0.111544	-0.005646	
-0.028839	0.018768	-0.236057	-0.001373	
-0.041963	0.023956	-0.533914	0.001068	
-0.054475	0.020294	-0.366674	0.009308	
-0.049287	0.017242	-0.130465	0.016022	
-0.041047	0.017242	0.149996	0.013885	
-0.045014	0.004425	0.305028	-0.002899	
-0.029449	0.007782	-0.059663	-0.007782	
-0.026093	-0.000763	0.139925	-0.016632	
-0.023041	-0.005341	0.111238	-0.011444	
-0.043794	-0.021820	-0.048676	-0.017242	
-0.037995	-0.017548	0.264744	-0.007477	
-0.019989	-0.003204	0.237278	-0.004120	
0.001068	0.005951	-0.129549	-0.007477	
0.001678	-0.005035	0.028534	-0.003510	
0.016022	-0.003510	0.226292	0.002594	
0.040742	0.001678	0.205234	-0.011444	
0.052339	0.002289	0.259861	-0.017548	
0.037995	0.006561	0.247044	-0.004120	
0.029144	0.000763	0.078584	0.000153	
0.044099	0.012665	-0.048066	0.001068	
0.030365	0.008698	-0.166476	-0.005951	
0.017242	0.009918	-0.173495	-0.007172	
-0.001678	0.003204	-0.148775	-0.014191	
-0.042268	0.002289	-0.082856	-0.011444	
-0.057527	0.004425	-0.003204	-0.000763	
-0.063630	0.009308	0.182956	0.002289	
-0.082246	-0.003815	0.041047	-0.016327	
-0.052339	0.000763	0.034944	-0.003204	
-0.025787	-0.009003	-0.004425	-0.009308	
0.008392	0.001678	-0.070039	-0.009918	
0.026703	-0.000763	0.019989	-0.013275	
0.041352	0.009003	-0.194858	-0.013885	
0.030060	0.008087	-0.241550	-0.012970	
0.017242	-0.005341	-0.446631	-0.007172	
0.010834	0.004425	-0.242161	-0.002289	
0.004120	-0.000153	-0.075837	-0.013580	
0.002594	-0.008087	-0.010223	-0.017853	
0.000458	-0.001373	-0.025177	0.001068	
0.012970	0.004730	0.542153	-0.009003	
0.040742	-0.009918	0.868086	-0.024261	
0.056611	-0.013580	0.401464	-0.015106	
0.024872	-0.016937	0.150606	-0.009308	
0.008087	0.014801	-0.274509	0.003815	
-0.000763	0.010223	-0.539407	0.000763	
0.007172	0.003204	-0.308385	0.011139	
-0.010834	0.004730	-0.143587	0.008698	
-0.020294	0.020905	0.202792	0.010223	
-0.053864	0.013885	0.373999	-0.001984	
-0.059968	0.003204	0.183871	-0.015106	
-0.047761	0.001984	0.174411	-0.005951	
-0.023346	0.002289	0.050813	-0.003204	
-0.005646	0.017242	0.001984	-0.007172	
0.017853	0.008698	-0.207980	-0.001984	
0.028534	0.002289	-0.354162	-0.001373	
0.014191	-0.005035	0.275425	0.002899	
-0.019989	-0.011139	0.193332	-0.009003	
-0.059663	-0.020905	0.026093	-0.022736	
-0.036469	-0.014801	-0.047761	-0.007172	
-0.026093	-0.010834	-0.208285	-0.005035	
-0.021210	-0.000763	-0.189364	-0.004425	
0.048982	0.019379	-0.165561	-0.008087	
0.070649	0.034028	0.000458	-0.012054	
-0.006256	0.030975	-0.184787	-0.027618	
-0.025482	0.040437	-0.159457	-0.008087	
-0.027313	0.044709	-0.622721	0.004120	
-0.014191	0.038301	0.006866	0.024567	
-0.002289	0.030975	0.429542	0.010223	
0.013275	0.016022	0.461280	-0.009308	
0.016327	-0.007172	0.457313	-0.011749	
0.018158	-0.019684	0.588235	-0.019989	
0.027924	-0.030060	0.349585	-0.008087	
-0.001984	-0.030060	0.050202	-0.007782	
-0.009613	-0.031587	-0.371252	-0.014191	
0.009003	-0.035859	-0.488747	-0.019379	
0.017853	0.000153	-0.292516	-0.005646	
-0.032197	0.022430	0.070039	-0.006866	
-0.041963	0.038301	0.154268	0.008698	
-0.059968	0.009308	0.081025	-0.016632	
-0.048982	0.005951	0.043183	-0.017242	
-0.021515	-0.008392	0.002289	-0.008392	
-0.002289	-0.011749	-0.007172	0.006256	
-0.011139	-0.031281	-0.200961	0.002594	
-0.019379	-0.041047	-0.218051	-0.005646	
-0.023651	-0.013885	0.071565	-0.007172	
-0.005035	0.002289	0.216525	-0.007782	
0.008087	0.012970	-0.163424	-0.011139	
0.021210	0.017853	-0.080415	-0.016327	
0.033723	0.004730	0.191806	-0.017853	
0.036469	0.004120	-0.002899	-0.010223	
0.011749	0.033113	-0.223545	0.007782	
-0.025177	0.028839	0.005035	0.014496	
-0.008087	0.013885	-0.131075	0.011139	
-0.009613	-0.000763	-0.127718	-0.014496	
-0.012970	0.004425	0.338902	-0.016022	
-0.035554	0.000763	0.124971	-0.022430	
-0.053864	0.008087	-0.124056	0.001068	
-0.053864	-0.009613	-0.041657	0.010223	
-0.017853	-0.005341	0.224461	-0.003204	
0.016937	-0.001068	-0.069734	-0.014191	
0.054170	0.007172	0.046235	-0.014191	
0.036469	0.005646	0.089570	-0.017548	
0.009918	0.008698	-0.127718	-0.013580	
-0.025787	0.016327	-0.030365	-0.009003	
-0.048371	0.009308	0.231480	-0.006866	
-0.056916	0.015106	0.334630	-0.004120	
-0.060578	0.002289	0.179599	-0.012970	
-0.027008	0.003815	0.239109	-0.014191	
-0.004120	0.000763	0.214084	-0.021820	
0.021210	0.001068	0.071870	-0.002289	
0.078279	0.013275	-0.251621	-0.000763	
0.074006	0.013275	-0.294652	-0.004120	
0.034028	0.000153	-0.209811	-0.005951	
-0.005341	0.011139	-0.139315	0.028229	
-0.029144	0.014496	0.113985	0.018768	
-0.015411	0.030975	-0.196994	-0.009308	
-0.012360	0.034333	-0.509804	-0.015106	
-0.012054	0.026093	-0.135042	-0.014496	
-0.033418	0.008087	0.150606	-0.017242	
-0.033418	-0.016937	-0.036164	-0.009308	
-0.019989	-0.039826	0.306249	-0.008087	
0.004730	-0.048066	0.226292	-0.002899	
0.027924	-0.034944	0.101778	0.000763	
0.034028	-0.029144	0.005951	-0.005341	
0.030060	-0.011139	-0.125277	-0.000763	
-0.002289	-0.007782	-0.067597	-0.009003	
0.004730	-0.002289	0.331273	-0.006866	
0.021210	0.005951	-0.029144	-0.007477	
0.034028	0.010834	-0.023956	-0.001678	
0.018463	0.004425	-0.215304	-0.007172	
0.004730	0.007782	-0.168002	0.001678	
0.000763	0.007172	0.219578	0.005951	
-0.014191	0.036775	0.399023	0.008087	
-0.027924	0.048982	0.138704	-0.000763	
-0.031892	0.032197	0.026093	-0.002899	
-0.033723	-0.007782	-0.196383	-0.012054	
-0.029755	-0.030060	-0.327611	-0.012970	
-0.018158	-0.033113	-0.164950	-0.021515	
-0.019684	-0.024261	0.077668	-0.010529	
-0.009613	-0.010223	0.041352	0.001678	
-0.010223	-0.000763	0.194552	0.003815	
-0.012970	-0.007782	0.348974	0.011139	
-0.025482	-0.002899	0.012054	0.002899	
-0.015106	0.010834	-0.023651	0.000153	
-0.011749	-0.005341	0.018463	-0.010223	
-0.001678	0.001984	-0.148775	-0.011444	
0.014191	-0.012054	-0.107882	-0.007782	
0.039216	-0.005646	-0.049897	-0.000763	
0.014191	-0.012054	-0.013885	-0.015106	
-0.002899	0.004730	0.079499	-0.006866	
0.006256	0.011749	0.255589	-0.017242	
0.027008	0.004120	0.176852	-0.017853	
0.017242	-0.006256	0.113985	-0.015717	
0.002899	0.003204	-0.027008	0.006561	
0.009918	0.013275	-0.361486	0.022125	
0.013275	0.012665	0.089570	0.015106	
0.015717	0.027313	-0.003204	-0.009308	
-0.015106	0.021820	-0.302892	-0.039826	
-0.023956	0.023041	0.079499	-0.025787	
-0.020905	0.016327	0.121920	-0.007477	
-0.010223	0.011749	0.047761	-0.008392	
-0.000763	0.000763	-0.004120	-0.007477	
-0.001678	-0.003510	-0.084687	-0.007477	
0.005035	-0.001068	-0.302281	-0.014191	
-0.008087	0.008087	-0.230259	-0.000153	
-0.029755	0.012054	-0.301366	-0.006866	
-0.014191	0.016022	-0.257114	0.008087	
-0.019989	0.030670	0.047456	0.015106	
-0.031892	0.053254	0.346838	0.005951	
-0.046235	0.041963	0.436866	-0.013275	
-0.054170	0.037385	0.386816	-0.017242	
-0.043489	0.011139	0.511635	-0.016327	
-0.009613	-0.035859	0.148470	-0.005341	
0.018158	-0.035249	-0.171664	0.001068	
0.019073	-0.009308	-0.064240	-0.004425	
0.060273	0.004120	0.311742	-0.001678	
0.093843	-0.002899	-0.244297	-0.015106	
0.059358	-0.014191	-0.310826	-0.012360	
0.025787	-0.023651	0.174411	-0.005035	
0.012360	-0.012360	0.184176	0.011444	
0.003815	-0.023041	-0.124666	0.006256	
-0.030060	-0.003204	-0.126192	0.004425	
-0.063325	0.001068	-0.369116	0.002289	
-0.083161	0.003815	0.014191	0.003815	
-0.098116	-0.001678	0.004730	-0.012054	
-0.066072	0.006561	0.297704	-0.017242	
-0.038911	0.008087	0.180209	-0.015717	
-0.029449	-0.002899	-0.023346	-0.010223	
-0.016022	0.008392	-0.140841	-0.003510	
0.012970	0.008698	-0.272678	-0.005035	
0.002899	0.005951	-0.320897	-0.002899	
0.013275	0.000763	-0.199740	-0.006256	
0.031281	0.006561	-0.060578	-0.008392	
0.010529	0.004730	0.050508	-0.012360	
0.034028	0.000458	0.204318	-0.000763	
0.049287	-0.008392	0.272984	-0.005646	
0.042573	0.007172	0.190280	0.002289	
0.040742	0.013275	0.085908	-0.009308	
0.066682	0.023956	0.044709	-0.005646	
0.018463	0.021820	0.077668	-0.007477	
-0.005035	0.030670	0.474098	-0.009003	
-0.008392	0.040437	0.373999	-0.006256	
0.022736	0.019379	0.016022	0.000763	
0.016632	-0.017548	-0.146944	0.005951	
0.010529	-0.053864	-0.417945	0.018463	
-0.020905	-0.075532	-0.664836	0.006561	
-0.097200	-0.073701	-0.609903	-0.002899	
-0.160068	-0.049897	0.057832	-0.017853	
-0.187228	-0.013580	0.013885	-0.031892	
-0.099031	0.033418	-0.274509	-0.020294	
-0.027008	0.045014	0.238804	-0.027618	
0.014801	0.059968	0.307164	-0.013580	
0.049897	0.056611	0.297704	-0.006866	
0.052033	0.049287	0.416419	-0.005646	
0.018158	0.045014	0.385900	-0.014191	
0.006561	0.017242	-0.164645	-0.005646	
-0.011444	-0.003204	-0.229649	0.000153	
-0.014801	-0.009918	-0.027008	-0.007172	
-0.008392	-0.002289	0.013275	-0.009613	
0.013275	0.014191	0.011139	-0.009308	
0.019073	0.012360	0.358435	-0.012970	
0.013275	0.004120	0.429542	-0.009308	
0.011139	0.002289	-0.088655	0.001068	
0.009003	-0.006866	-0.366980	-0.001678	
0.010834	-0.009613	-0.409400	0.008392	
-0.008087	-0.027924	-0.341954	0.015106	
-0.026093	-0.034944	-0.007782	0.006866	
-0.032197	-0.025482	0.259251	-0.019073	
0.016937	-0.019989	0.395361	-0.013580	
0.034944	-0.028534	0.121614	-0.019073	
0.031281	0.001068	0.142061	-0.009003	
0.030060	-0.003510	0.178378	-0.023346	
0.040742	0.008087	0.194552	-0.013275	
0.036469	0.008392	0.026093	-0.018158	
0.035859	0.023041	-0.052033	-0.008392	
0.028229	0.033418	-0.103914	0.008698	
0.022125	0.023956	-0.138399	0.000153	
0.021820	0.012054	-0.543984	-0.008087	
-0.020905	0.001678	-0.719769	-0.017853	
-0.042878	0.009308	-0.727703	-0.011139	
-0.039826	0.015717	-0.531167	-0.007172	
-0.039521	0.044404	0.169528	0.002289	
-0.067292	0.056611	0.910811	0.005951	
-0.061799	0.059052	0.951400	0.003204	
-0.027313	0.026093	0.479897	-0.010223	
-0.015411	-0.001373	0.131685	0.008392	
-0.047456	-0.019073	0.027313	-0.007782	
-0.052949	-0.014801	-0.169833	0.002594	
-0.057832	-0.051728	-0.218662	0.001678	
-0.026093	-0.079804	0.006561	-0.009003	
0.019684	-0.077363	-0.097811	-0.011444	
0.074006	-0.043489	-0.040132	-0.017853	
0.070954	-0.031892	-0.123446	-0.015106	
0.018158	-0.026093	0.176852	-0.001984	
-0.033723	0.003204	0.419471	0.001068	
-0.037080	0.019989	-0.167392	-0.002899	
0.004425	0.014496	0.168612	-0.003510	
0.036775	0.003815	-0.224461	-0.005951	
0.061799	0.005646	-0.558022	-0.000153	
0.062715	-0.005341	-0.026398	-0.004425	
0.040132	0.004425	-0.055696	-0.003510	
-0.019989	0.024872	-0.285802	-0.017242	
-0.051423	0.028229	0.147860	-0.009003	
-0.069734	0.030670	0.141146	-0.011444	
-0.052033	0.021820	0.153658	-0.003204	
-0.061189	-0.005646	0.054475	-0.002289	
-0.064240	-0.005341	0.435950	-0.005646	
-0.050508	-0.019379	0.766766	-0.020599	
0.036469	-0.022430	0.137178	-0.022736	
0.069428	-0.006866	0.208285	-0.009308	
0.038606	0.016022	-0.015411	0.007172	
0.032197	0.022430	-0.311437	0.002899	
0.024261	0.030975	-0.386206	-0.010223	
0.013275	0.026398	-0.754864	-0.014496	
0.009918	0.011749	-0.654154	0.013885	
0.074616	0.004425	-0.032197	0.022430	
0.122530	0.006561	0.395361	0.008087	
0.104830	0.019989	0.164340	-0.014496	
0.063325	0.011139	-0.004425	-0.028534	
0.021210	0.026398	0.077058	-0.016327	
-0.019684	0.006256	0.029144	-0.017853	
-0.067903	0.022430	0.190280	-0.013580	
-0.089570	0.090486	0.288854	-0.016022	
-0.075227	0.076753	0.160373	-0.001373	
-0.044099	0.013275	-0.069123	0.012665	
-0.060273	-0.039521	-0.124971	0.027618	
-0.085298	-0.057221	-0.334325	0.017242	
-0.130159	-0.049287	-0.264439	-0.017853	
-0.134737	-0.035859	-0.121614	-0.026093	
-0.103609	-0.026398	0.100863	-0.014191	
-0.069734	-0.030975	0.379797	-0.004425	
-0.051423	-0.041047	0.491493	-0.000153	
-0.050202	-0.015717	0.497597	-0.013275	
-0.054170	0.021820	0.149996	-0.019989	
-0.021820	0.044099	-0.245518	-0.003510	
0.001678	0.020294	-0.624247	-0.008392	
0.030670	0.016327	-0.507362	0.016022	
0.041352	0.007172	0.556191	0.009918	
0.077058	0.014496	-0.002289	-0.015106	
0.118563	0.010223	-0.197909	-0.046235	
0.084077	0.011749	0.104830	-0.017548	
0.036469	0.010834	0.244297	0.017242	
0.016327	0.013885	0.122530	0.005341	
0.008698	0.008698	0.083161	-0.017548	
0.001068	0.004120	0.052339	-0.013580	
0.006256	-0.001678	0.045014	-0.014496	
0.019073	-0.012970	0.045625	-0.013275	
0.026093	-0.009613	-0.015106	0.003815	
0.018463	-0.008087	-0.194247	0.008087	
0.003815	-0.007782	-0.205844	0.009308	
0.067292	-0.009613	-0.187533	0.006866	
0.002289	0.011749	0.074616	0.000153	
-0.124056	0.028229	0.214389	-0.006256	
-0.041352	0.041963	-0.106661	-0.004120	
0.017242	0.052033	-0.395666	-0.023346	
0.027313	0.027008	-0.418250	-0.024567	
-0.000153	-0.015106	-0.040437	-0.004425	
-0.006866	-0.049897	0.092011	-0.000763	
-0.016327	-0.055390	0.485085	-0.002899	
-0.037385	-0.031587	0.711223	-0.002289	
-0.023651	-0.013885	0.226902	-0.010223	
0.000458	-0.004120	-0.105440	-0.017853	
0.007782	0.016632	-0.175021	-0.016022	
0.002594	0.015106	-0.013580	-0.013275	
0.025177	0.019073	0.201877	-0.003204	
0.038301	0.017242	0.124971	-0.009613	
0.043794	0.021820	0.113985	-0.008087	
0.052949	-0.005035	0.182956	-0.003510	
0.066682	-0.003510	-0.143282	-0.000153	
0.066682	0.001984	-0.483253	-0.015106	
0.031892	0.000458	-0.051728	-0.006866	
-0.004425	-0.016327	-0.284276	-0.005951	
-0.038301	-0.013885	-0.131685	0.020599	
-0.124666	0.001678	0.025177	0.016937	
-0.179294	0.024567	-0.234531	0.000458	
-0.159152	0.048371	-0.189670	0.002899	
-0.095064	0.049287	-0.686198	-0.002899	
-0.039216	0.049897	-0.003815	-0.011139	
-0.005951	0.040132	0.714274	-0.005646	
0.001984	0.006561	0.073091	-0.015717	
0.028229	0.009003	0.459144	-0.004425	
0.058442	-0.004120	0.373693	-0.009918	
0.042268	-0.044099	-0.086518	-0.028229	
0.028229	-0.049592	-0.185092	-0.019989	
0.054170	-0.031892	-0.203097	-0.017853	
0.045014	0.000153	-0.191806	-0.011749	
-0.006256	0.014191	0.164950	-0.009918	
-0.029755	0.017853	0.676433	-0.007477	
-0.033723	0.014496	0.416114	-0.015106	
-0.016937	0.020599	0.006256	-0.005035	
-0.027618	-0.006866	-0.098726	-0.001984	
-0.006256	-0.031281	-0.175937	0.015411	
0.028839	-0.056001	-0.056916	0.002289	
0.060273	-0.025177	0.043489	-0.008392	
0.070039	-0.010834	0.006561	-0.015717	
0.060578	-0.012970	0.233311	-0.015717	
0.037690	-0.009308	-0.162509	0.002289	
0.009613	-0.001068	-0.756084	0.016022	
-0.031892	0.004425	-0.352026	0.027008	
-0.061494	0.006561	0.018768	0.016022	
-0.032502	0.014801	0.028534	-0.008087	
-0.020905	0.020294	-0.023956	-0.019073	
-0.008087	0.034028	0.192111	0.001068	
-0.027313	0.032807	0.653238	-0.003204	
-0.042878	0.028229	0.009918	-0.017853	
-0.057832	0.007782	0.002899	-0.030670	
-0.044099	0.005951	0.055696	-0.017242	
-0.029449	0.008392	0.057221	-0.011749	
-0.009308	0.009003	0.096895	0.002899	
0.028534	0.001984	0.063630	0.012665	
0.067903	0.000763	-0.100252	-0.005646	
0.048982	-0.001373	-0.264744	-0.010223	
0.013275	0.005951	-0.241550	-0.009003	
0.011139	0.014496	-0.130159	-0.006256	
0.084687	0.020294	0.113985	0.004425	
0.077973	0.023041	0.401159	0.008698	
0.003204	0.022736	0.499428	0.000153	
-0.065461	0.030365	0.308080	-0.001984	
-0.088349	0.013885	-0.741436	-0.005951	
-0.059358	0.016022	-0.706950	0.008698	
0.004120	0.007782	-0.219273	0.011139	
0.055085	-0.005951	0.087739	0.008392	
-0.014801	-0.041963	0.254673	-0.013275	
-0.062104	-0.042573	0.446021	-0.027924	
-0.078279	-0.056611	0.296788	-0.022125	
-0.089875	-0.051728	-0.330358	-0.015106	
-0.089265	-0.034333	0.042878	-0.017548	
-0.061189	-0.027924	0.293126	-0.003510	
-0.041352	-0.008392	-0.102083	-0.007172	
-0.038911	0.012054	0.008087	-0.026093	
-0.023651	0.018463	-0.141451	-0.014191	
0.021210	0.008087	-0.138399	-0.001678	
0.034944	0.006256	0.071870	-0.009308	
0.031281	0.012665	0.170138	-0.018158	
0.028229	0.013885	0.113985	-0.013275	
0.012665	-0.002899	0.210422	-0.007172	
0.016327	-0.008392	0.164035	-0.002899	
0.031281	-0.008087	-0.087129	-0.000763	
0.019073	0.000458	-0.204013	0.010223	
-0.014191	0.002289	-0.517738	-0.005951	
-0.027924	0.008087	-0.678569	0.001068	
-0.041047	0.016022	-0.195773	-0.000763	
-0.058442	0.019379	0.451819	-0.013275	
-0.040437	0.024567	0.634623	-0.010529	
0.016937	0.038911	0.394751	-0.012970	
0.019073	0.036775	0.439002	-0.011139	
0.040742	0.032502	0.303502	-0.019379	
0.123140	0.014496	-0.262302	-0.025177	
0.130159	0.003204	-0.471962	-0.007477	
0.102388	0.002289	-0.407264	0.000153	
0.052644	0.016327	0.019073	-0.001373	
0.008392	0.049897	0.520790	-0.007172	
-0.041657	0.045014	0.374304	-0.011444	
-0.070344	0.034028	0.106050	0.002594	
-0.080110	0.030670	-0.157931	0.005035	
-0.064546	0.016022	-0.518654	0.018768	
-0.081941	-0.015717	-0.801862	0.019989	
-0.099642	-0.037995	-0.215915	-0.001984	
-0.131990	-0.066377	0.330052	-0.018463	
-0.080110	-0.082856	0.275120	-0.028534	
0.011139	-0.093537	-0.021515	-0.026093	
0.084382	-0.081941	-0.124666	-0.009613	
0.064546	-0.051118	-0.399328	-0.010223	
0.054170	-0.023956	-0.154573	-0.001678	
0.046235	0.009308	0.565042	0.006866	
-0.027008	0.047456	0.890059	-0.003510	
-0.059663	0.068513	0.398108	0.006561	
-0.009003	0.027924	-0.337987	0.003204	
0.004730	0.027008	-0.291295	-0.005035	
0.004120	0.011749	0.015411	-0.001373	
0.014496	0.000458	0.385290	0.006561	
0.014801	-0.023651	0.320287	-0.016022	
0.032502	-0.007782	0.059663	-0.026398	
0.042573	-0.009613	-0.084382	-0.022736	
0.047151	0.003815	-0.366064	-0.003204	
0.052949	0.011749	-0.299230	-0.003204	
0.049287	0.010529	-0.047456	-0.001678	
0.013275	0.013885	-0.049287	-0.001984	
-0.017853	0.023956	-0.185092	-0.012970	
-0.037690	0.018768	-0.390478	-0.013885	
-0.082246	0.023346	-0.460975	-0.007477	
-0.067903	0.034638	-0.151827	-0.005341	
-0.027924	0.059358	0.378576	0.000763	
-0.012360	0.080110	0.095064	0.009308	
-0.017242	0.065461	0.153963	0.007782	
-0.002899	0.045320	0.526894	0.006866	
0.045014	-0.015106	0.299230	-0.009613	
0.068818	-0.049897	-0.163119	-0.015106	
0.010834	-0.053864	0.336156	-0.015106	
-0.097506	-0.036164	0.313573	-0.009918	
-0.062409	-0.012360	0.040132	-0.011749	
0.022430	-0.011139	-0.061494	-0.015717	
0.040132	-0.029144	-0.079194	-0.017242	
0.045930	-0.011444	-0.236668	-0.009918	
0.038606	0.012970	-0.259861	-0.008392	
-0.007172	0.031892	-0.172580	0.006561	
-0.041047	0.025177	-0.044709	0.011444	
-0.031587	-0.000153	0.333714	-0.009003	
0.001984	-0.000153	0.076753	-0.009003	
0.014496	-0.004120	0.070039	-0.012054	
0.011139	-0.031587	0.298009	-0.005646	
0.048676	-0.049897	0.045625	-0.004120	
0.106356	-0.000153	0.051728	-0.002289	
0.016022	0.028839	-0.063630	-0.016327	
-0.051423	0.025177	-0.222019	-0.008392	
0.022430	0.038911	-0.097200	0.003204	
0.115511	0.080110	-0.019379	0.019073	
-0.021820	0.048982	-0.122225	-0.005341	
-0.128328	0.028839	-0.196078	-0.005035	
-0.221409	-0.016937	-0.201266	-0.011749	
-0.221409	-0.043183	-0.106661	-0.001984	
-0.139315	-0.045014	-0.159152	0.000153	
-0.138399	-0.014191	-0.452125	0.010223	
-0.151827	0.012360	-0.230259	-0.000763	
-0.068208	-0.005341	0.317540	0.002899	
-0.007477	-0.006256	0.567788	0.015411	
0.034944	0.020599	0.499733	0.007782	
-0.002289	0.052644	0.496986	0.000763	
0.027924	0.058137	0.191806	-0.000763	
0.123140	0.030365	-0.233921	-0.010223	
0.055390	0.005951	-0.243382	-0.030060	
0.004425	0.026703	0.190280	-0.018158	
0.022736	0.027924	0.102083	-0.014496	
0.043794	-0.030060	0.021210	-0.016022	
-0.001373	-0.056306	0.001068	-0.025787	
-0.024872	-0.048676	0.051423	-0.020294	
-0.002289	-0.059663	0.128023	-0.024261	
0.011749	-0.066072	0.065156	-0.014191	
0.039826	-0.069734	0.080110	-0.007172	
0.066682	-0.059968	-0.102388	-0.005646	
0.058747	-0.028229	-0.298619	-0.016327	
0.054780	-0.012054	-0.330663	-0.012054	
0.077363	-0.006256	-0.383764	0.010223	
0.067292	-0.009918	-0.218051	0.002289	
0.054475	0.013275	0.464026	-0.005951	
0.033113	0.020599	0.274815	-0.025177	
0.013275	0.020905	-0.085908	-0.030060	
0.006256	0.022736	-0.235447	-0.007477	
0.011749	0.022125	-0.254673	0.016937	
-0.004425	0.040742	0.149385	0.005951	
0.018463	0.069123	0.091706	-0.005951	
0.017242	0.062409	-0.017242	-0.005035	
0.027924	0.044709	-0.235447	-0.001984	
0.043794	-0.004120	-0.330663	-0.015717	
0.050813	-0.025787	0.156099	-0.003510	
0.013275	-0.016022	0.574807	-0.001678	
-0.031281	0.007172	0.335546	-0.010223	
-0.057832	0.016632	0.564736	-0.013580	
-0.066987	0.013275	0.344702	-0.008392	
-0.078584	0.014801	-0.175937	0.000458	
-0.066072	0.014496	-0.193637	-0.001678	
-0.054170	0.020905	-0.308690	0.008087	
-0.045625	0.006561	-0.410010	0.003815	
-0.020905	-0.021515	-0.324864	-0.005341	
-0.031281	-0.036469	0.063020	-0.011139	
-0.031281	-0.014191	0.279087	0.011444	
-0.027008	-0.007782	-0.084687	-0.002289	
-0.023956	0.002594	-0.196383	-0.003510	
-0.037995	0.021210	-0.015717	0.000458	
-0.041963	0.032502	0.182956	0.003204	
-0.044404	0.022430	0.453345	-0.006866	
-0.038301	0.014496	0.142061	-0.015717	
-0.045625	0.004425	0.259861	-0.023346	
-0.025482	0.007172	0.084687	-0.017548	
0.012665	-0.003815	-0.114901	-0.009918	
0.058442	0.001678	-0.142366	0.018768	
0.076753	-0.002899	-0.560159	0.041657	
0.035249	-0.005951	-0.319066	0.016022	
0.026398	0.006866	-0.018158	-0.014496	
0.066072	-0.003204	0.113985	-0.015717	
0.207065	-0.003815	0.373693	0.002289	
0.096285	0.012970	0.039216	-0.016327	
-0.097506	0.041963	-0.181125	-0.021820	
-0.063325	0.046540	0.326695	-0.020599	
-0.011444	0.066987	0.139925	-0.014496	
-0.021820	0.038911	-0.003510	-0.017853	
-0.029755	-0.014191	0.004425	-0.013275	
-0.056306	-0.026398	-0.078889	-0.006256	
-0.115511	-0.030975	-0.084382	0.005341	
-0.142061	-0.076142	-0.088655	-0.005646	
-0.058137	-0.094759	-0.274204	-0.016327	
-0.003815	-0.054475	-0.142366	-0.011444	
0.026398	-0.019989	-0.215915	-0.009918	
0.042268	-0.020905	0.199130	-0.003510	
0.048066	-0.019073	0.376440	-0.006866	
0.047761	0.005035	0.392309	-0.005341	
0.022430	0.010223	0.498512	-0.024567	
0.022125	0.013885	0.175937	-0.014496	
0.025177	0.003815	-0.141451	0.009308	
0.013275	0.014801	-0.314488	0.025177	
-0.007477	0.003204	-0.104830	0.003815	
-0.001373	0.012360	0.179904	-0.011444	
-0.003815	0.004425	-0.138399	-0.021515	
-0.016937	0.010834	-0.276035	-0.000153	
-0.017242	0.008392	0.020599	0.014191	
-0.031892	0.020905	-0.016937	0.004120	
-0.051423	0.048982	-0.106356	-0.011444	
0.005951	0.056306	-0.070649	-0.021515	
0.054780	0.046845	-0.110933	-0.020599	
0.068513	0.023956	0.065766	-0.001984	
-0.008087	-0.001068	-0.040132	0.000458	
-0.035554	-0.002899	-0.064240	-0.016327	
-0.030975	0.026703	0.103304	-0.021820	
-0.039521	0.026093	-0.175326	-0.020294	
-0.031281	0.022125	-0.319371	-0.022430	
-0.056001	0.002899	-0.151522	-0.023651	
-0.078584	-0.001068	0.664226	-0.010223	
-0.103304	-0.006256	0.581216	-0.004120	
-0.077363	0.016022	-0.058442	0.013885	
-0.026093	0.007172	0.182345	0.012360	
0.039826	0.003204	0.105440	-0.000763	
0.028839	-0.011749	-0.124361	-0.017242	
0.006866	-0.036164	-0.395056	-0.000763	
0.024872	0.000458	-0.205234	0.000153	
0.065156	0.037995	0.397192	-0.010529	
0.074006	0.011749	0.356298	-0.013885	
0.028534	-0.011444	-0.099031	-0.019684	
0.004120	-0.031281	0.081635	0.001678	
-0.012360	-0.030060	-0.008087	0.020905	
-0.018463	-0.034333	-0.027924	0.014496	
-0.044404	-0.024261	-0.236362	-0.005035	
-0.022125	-0.015106	-0.069734	-0.004425	
0.030670	-0.019989	0.099642	-0.007782	
0.055390	-0.027924	-0.015106	-0.010223	
0.037690	-0.033723	-0.066987	-0.012970	
0.026703	-0.020905	-0.143892	-0.001984	
0.030670	-0.025787	0.028839	-0.018158	
0.066987	-0.003815	0.087434	-0.021820	
0.130159	0.031892	0.072785	-0.023956	
0.062715	0.148470	0.012054	-0.003510	
0.024872	0.222019	-0.147860	0.015411	
0.161593	0.115206	0.216220	0.015411	
0.019989	-0.001984	-0.029144	0.021515	
-0.236973	-0.062715	-0.322728	0.013885	
-0.277561	-0.084077	-0.498207	0.006561	
-0.225376	-0.079194	-0.313573	-0.019379	
-0.154268	-0.069428	-0.265049	-0.010223	
-0.103304	-0.041963	0.154268	-0.005035	
-0.071870	0.007172	0.703593	-0.001678	
-0.055696	0.045320	0.431373	-0.013885	
-0.032197	0.052644	0.335851	-0.017242	
-0.009613	0.018768	0.337987	-0.020294	
0.019989	-0.023956	0.210422	-0.004425	
0.047761	-0.072175	0.055085	-0.000763	
0.085298	-0.063325	-0.121614	-0.012970	
0.114595	-0.034028	0.034638	-0.021820	
0.111544	0.010834	0.187228	-0.025787	
0.083467	0.019073	0.101168	-0.029755	
0.056611	0.010223	-0.044404	-0.013580	
0.044709	0.010834	-0.447852	-0.009308	
0.036469	0.044099	-0.648355	-0.006866	
0.007782	0.034638	-0.162814	0.006256	
-0.045625	0.021210	0.051118	-0.002899	
-0.033113	0.043489	-0.281224	-0.011139	
-0.023956	0.027924	-0.355993	-0.011444	
0.003815	0.021210	-0.398413	0.008698	
0.013275	0.014496	0.072785	0.002289	
0.019684	0.009308	0.481422	-0.000153	
0.004425	-0.024261	0.377050	-0.002899	
0.018158	-0.065766	0.206149	0.005341	
0.008087	-0.081635	0.232395	-0.002899	
-0.047151	-0.034333	0.229038	0.009308	
-0.116121	0.004120	0.249790	-0.009918	
-0.086518	0.040742	0.085603	-0.019989	
-0.030365	0.051118	-0.010223	-0.030060	
-0.001984	0.043489	-0.147249	-0.024567	
0.004120	0.030670	-0.126802	-0.009308	
0.006256	0.011749	-0.127718	0.005035	
0.013275	0.006561	-0.289159	0.010223	
0.023956	0.000153	-0.189670	0.000763	
0.053864	0.004425	0.494545	0.006561	
0.029144	-0.006866	0.428321	-0.009003	
0.013885	0.000458	0.099642	-0.006256	
0.002899	0.000458	0.117037	0.000153	
-0.008087	0.003204	0.053559	0.002594	
-0.009308	0.003815	0.006866	-0.001984	
-0.006256	0.003204	0.272984	-0.009308	
-0.012360	0.005035	-0.217441	-0.023651	
-0.002899	0.008087	-0.377050	-0.011139	
-0.008087	-0.003204	-0.154879	-0.009003	
-0.013580	-0.013885	0.168612	-0.013275	
-0.001984	-0.005951	0.281529	-0.012054	
-0.003815	0.010529	0.051118	-0.020599	
-0.001678	0.009308	-0.255589	-0.017242	
-0.005341	0.012665	-0.391088	-0.001984	
-0.016937	0.013275	-0.583352	0.010529	
-0.029144	0.010223	-0.700236	0.008698	
-0.042878	0.010834	-0.039216	0.002289	
-0.056916	0.004120	0.123140	-0.017853	
-0.059968	0.006256	-0.248264	-0.017242	
-0.050202	0.002289	-0.185702	0.002899	
-0.023651	0.002289	0.207065	0.028534	
0.004425	0.000153	0.594950	0.012054	
0.068208	0.005035	0.601053	-0.005035	
0.126192	-0.004120	0.310216	-0.019684	
0.182651	-0.001373	0.091706	-0.010223	
0.165256	-0.008087	0.020294	-0.010529	
0.050202	-0.005646	0.117037	-0.010223	
-0.020905	-0.003204	0.334630	-0.009613	
-0.072175	0.005035	0.010529	-0.002899	
-0.118563	0.012970	0.148470	0.011139	
-0.107576	0.028839	-0.013580	0.009918	
-0.071259	0.026398	0.132601	0.004120	
-0.034944	0.018768	0.156099	-0.000763	
0.021210	0.014801	-0.135042	-0.011444	
0.056611	0.004425	0.034638	-0.019379	
0.010529	0.003204	0.044709	-0.011749	
-0.045930	-0.027924	-0.191195	-0.019684	
-0.063325	-0.039826	-0.650492	-0.009918	
-0.051423	-0.045930	-0.600443	-0.007477	
-0.010223	-0.043489	0.045320	0.005341	
-0.025787	-0.052033	0.273289	-0.012970	
-0.065461	-0.018158	0.132601	-0.021210	
-0.037690	0.014801	-0.106050	-0.007477	
-0.015717	0.038911	0.073396	-0.003510	
0.017853	0.039826	0.383764	0.003204	
0.002899	0.046235	0.164950	0.004425	
-0.112459	0.048066	0.099337	-0.004120	
-0.127413	0.023041	0.066377	-0.019379	
-0.039826	0.002594	-0.041963	-0.002289	
0.013275	0.008087	-0.432288	-0.003204	
0.128939	0.072175	-0.277866	0.004425	
0.252842	0.066377	-0.161288	0.012054	
0.192721	-0.012054	-0.325475	0.010834	
0.002289	-0.089265	-0.240635	-0.005035	
-0.104219	-0.127718	0.055696	-0.004120	
-0.150606	-0.123446	0.361792	-0.011139	
-0.116121	-0.020905	0.153658	-0.005341	
-0.067597	0.046845	0.257114	-0.010223	
-0.057527	0.086213	0.345617	-0.012054	
-0.067292	0.065461	-0.107271	-0.015717	
-0.021210	-0.001373	0.090180	-0.009918	
0.031281	-0.066072	0.123751	-0.012970	
0.065766	-0.068513	0.043489	-0.002289	
0.074311	-0.062715	-0.048066	-0.003510	
0.069123	-0.041047	-0.138399	-0.003510	
0.062715	0.025177	-0.022430	-0.003204	
0.040742	0.057527	0.000153	-0.011444	
0.026398	0.045014	0.243382	-0.008392	
0.006866	0.027313	0.355993	-0.020294	
0.014801	0.002899	0.142672	-0.022430	
0.000763	-0.034333	0.073701	-0.010529	
-0.026398	-0.018463	-0.118563	-0.005951	
-0.035859	0.003815	-0.103304	-0.008392	
-0.009003	0.027008	-0.172580	0.003815	
-0.033723	0.030060	-0.168002	-0.005035	
-0.055696	0.054780	-0.014191	0.000153	
-0.048066	0.063630	-0.110018	-0.017548	
-0.028839	0.053254	-0.302281	-0.013885	
-0.023651	0.057527	-0.039216	0.004425	
-0.029755	0.049287	-0.304112	0.004425	
-0.023956	0.008698	-0.097200	-0.001373	
-0.008087	-0.001068	0.189670	0.004120	
0.002899	0.003204	0.517433	-0.000763	
0.005035	0.002899	0.131075	-0.017853	
0.019073	-0.001373	0.126497	-0.021210	
0.014801	-0.014191	0.088655	-0.020599	
0.013275	-0.007172	0.078889	-0.005035	
0.014801	-0.016937	0.002899	-0.009003	
0.022125	-0.009918	0.017242	-0.001678	
0.015106	-0.016327	-0.037690	-0.004120	
0.015717	-0.007172	-0.064546	-0.007172	
0.011749	0.008087	-0.069734	-0.005951	
0.006256	0.004730	0.016937	-0.017853	
-0.004425	-0.001984	0.099947	-0.022736	
-0.027618	0.002289	0.121309	-0.009003	
-0.021820	0.006256	0.192111	-0.009918	
-0.012360	-0.004120	-0.013885	-0.002289	
-0.009003	0.000458	-0.092011	0.004425	
-0.007477	-0.002289	0.152742	-0.007172	
-0.010834	0.001984	-0.038606	-0.007477	
-0.014801	-0.003815	-0.239414	-0.004120	
0.000763	0.006561	-0.337071	-0.005035	
-0.001678	0.005951	-0.326695	-0.015106	
0.009003	0.004730	-0.120699	0.009308	
-0.002289	-0.013885	0.107576	0.001068	
-0.001068	-0.011444	0.298009	-0.017548	
0.002899	-0.014191	0.092622	-0.019379	
-0.001068	-0.007782	0.028534	-0.016022	
-0.009918	-0.011139	0.142061	-0.027618	
0.010834	0.004730	-0.026093	-0.006256	
0.001068	-0.000153	0.244602	0.010834	
-0.003815	-0.002899	-0.029144	0.004425	
-0.009918	0.010529	-0.064240	-0.000763	
-0.018158	0.005646	-0.369726	-0.005341	
0.001984	0.012360	-0.291295	-0.000763	
0.074006	0.012054	-0.088655	-0.005341	
0.166781	0.009308	0.459754	-0.004120	
0.144503	0.014496	0.171664	-0.011444	
0.092011	0.028839	-0.093232	-0.016632	
0.027924	0.048982	-0.040437	-0.011139	
-0.055390	0.067597	0.019989	0.005035	
-0.103304	0.044709	0.068513	-0.002899	
-0.088655	0.022125	0.073091	0.001068	
-0.009613	-0.009918	0.014191	-0.010529	
-0.034944	-0.041352	0.028229	-0.012970	
-0.127413	-0.046540	0.227207	-0.016632	
-0.201877	-0.026398	0.289769	-0.011444	
-0.187228	-0.005646	0.147860	0.009003	
-0.142672	-0.008392	-0.078584	0.013885	
-0.087739	-0.000153	-0.251926	-0.005035	
-0.069428	0.059968	-0.284886	-0.013885	
-0.071565	0.096895	-0.381323	-0.007477	
-0.089265	0.018768	-0.084992	-0.011139	
-0.066072	-0.060273	0.608988	-0.003204	
0.014191	-0.130159	0.165866	-0.017853	
0.104525	-0.148165	-0.157931	-0.005035	
0.154879	-0.119783	-0.194858	0.005951	
0.178988	-0.065766	-0.123140	0.012665	
0.156711	-0.030060	0.172580	-0.006866	
0.146944	0.006256	0.243687	-0.010223	
0.103914	0.044709	-0.113375	-0.011749	
0.078584	0.079194	-0.001068	-0.005035	
0.025177	0.052949	0.477455	-0.012970	
-0.027618	0.053254	0.188754	-0.009308	
-0.044099	0.048982	-0.088044	-0.017242	
-0.089875	0.012054	-0.269932	-0.008087	
-0.095675	-0.000153	-0.588540	-0.004425	
-0.095064	0.008087	-0.660563	-0.002289	
-0.047151	0.012970	-0.019073	0.016022	
-0.058442	0.006256	0.926986	-0.009308	
-0.039216	0.024872	0.166476	-0.018463	
-0.021210	0.040132	-0.139315	0.005341	
-0.002899	0.034944	-0.377661	0.017242	
-0.016327	-0.004120	-0.129549	0.012360	
-0.034944	-0.018463	0.606546	0.010529	
-0.016327	-0.050202	0.293431	-0.001984	
0.007172	-0.050202	-0.357824	-0.009003	
0.036469	-0.022125	-0.298924	-0.026093	
0.059968	-0.001068	-0.007477	-0.016327	
0.033113	0.008087	0.309606	-0.005035	
0.012054	0.020905	0.171054	-0.004120	
-0.005341	0.028229	0.047151	-0.012054	
-0.004120	0.022125	0.111849	-0.021515	
0.004730	0.012970	0.171054	-0.015717	
0.012970	0.027008	0.316625	-0.003510	
0.028534	0.024872	0.147860	0.000153	
0.043794	0.025177	-0.109102	-0.009613	
0.062409	0.028229	0.047761	-0.004425	
0.074616	0.011749	-0.058442	-0.012360	
0.082551	0.014191	-0.287328	-0.012054	
0.065156	0.004120	-0.204928	-0.019073	
0.052949	-0.007782	-0.076447	-0.006256	
0.015106	-0.016327	0.037080	-0.006256	
-0.043489	-0.013885	0.279392	-0.012054	
-0.063020	0.006256	-0.046235	0.005951	
-0.067292	0.058747	-0.376745	0.014496	
-0.084382	0.058137	-0.439612	0.003815	
-0.100252	0.040742	-0.524757	0.010834	
-0.097506	-0.015106	-0.183871	0.000153	
-0.072480	-0.057832	0.229649	-0.000763	
-0.035554	-0.071259	0.438697	-0.011444	
-0.021210	-0.071565	0.030060	-0.018463	
-0.003204	-0.029449	0.154879	-0.009918	
-0.003815	0.015106	0.374304	-0.022736	
0.009918	0.043183	0.313268	-0.010223	
0.001068	0.043489	-0.207065	-0.019379	
0.010834	0.046235	-0.038301	-0.008392	
0.005035	0.023956	0.001068	0.000763	
0.014801	0.024567	0.056306	-0.002289	
0.018158	0.016632	0.050813	-0.019379	
0.024261	0.005035	0.240940	-0.015717	
0.024261	-0.008392	-0.082856	-0.011749	
0.027924	-0.005035	-0.126497	-0.004120	
0.048676	-0.013580	-0.064851	-0.003815	
0.160373	-0.020294	-0.064851	-0.009918	
0.287023	-0.023041	0.011139	0.002594	
0.190280	-0.025482	0.269932	0.001068	
-0.003815	-0.015106	0.314488	-0.015106	
-0.159762	-0.001984	0.170749	-0.017242	
-0.285497	0.013885	0.179904	-0.003510	
-0.299840	0.026703	0.059052	0.008698	
-0.262302	0.052339	0.041657	0.006561	
-0.214084	0.077363	0.000458	-0.005951	
-0.119783	0.052033	-0.009613	-0.003204	
-0.062409	-0.019073	-0.428016	-0.019684	
0.016937	-0.032197	-0.674602	-0.007477	
0.091096	-0.014191	-0.489052	-0.000763	
0.115206	-0.011444	-0.038301	0.012054	
0.102694	-0.011139	-0.154573	-0.012360	
0.107882	0.028839	-0.334630	-0.020599	
0.090486	0.096285	-0.227512	-0.007172	
0.092317	0.046845	-0.230259	0.010223	
0.068513	-0.031281	0.406653	0.014801	
-0.032502	-0.092622	0.481728	0.004730	
-0.103304	-0.103914	0.505531	-0.001678	
-0.041963	-0.059968	0.298924	-0.003510	
-0.036164	0.019073	0.193942	-0.006866	
-0.037690	0.045014	0.254673	-0.008392	
-0.003204	0.048371	0.065766	-0.009918	
-0.012360	0.007172	0.027924	-0.020294	
-0.025177	-0.047456	0.032807	-0.013580	
-0.011139	-0.069734	0.023041	-0.017242	
-0.003815	-0.067292	0.080110	-0.008392	
0.013275	-0.080110	0.022736	-0.010223	
0.028534	-0.089570	-0.141146	-0.017853	
0.014801	-0.090486	-0.150606	-0.027618	
0.035249	-0.015411	0.047761	0.008087	
0.010223	0.030060	0.036164	0.011139	
0.016937	0.034944	0.041047	0.016327	
0.044099	0.030975	0.262913	0.012360	
0.033723	0.045320	-0.412757	0.012665	
0.002594	0.053254	-0.455176	0.006561	
-0.016327	0.060578	0.361486	-0.020294	
-0.009613	0.083467	0.340734	-0.021515	
-0.019379	0.064240	-0.351416	-0.028229	
-0.003204	0.050813	-0.204013	-0.005951	
0.027313	0.036469	-0.417945	0.016022	
-0.042878	0.016022	-0.114901	0.033723	
-0.098421	-0.009308	0.252842	0.010223	
-0.050508	-0.001373	0.221409	-0.022430	
-0.008087	-0.000153	0.141451	-0.035859	
0.016937	0.010223	0.307164	-0.025177	
0.024261	0.003815	0.168612	-0.023346	
0.047761	0.003204	-0.256809	-0.010223	
0.075837	0.004425	-0.342870	-0.007782	
0.061799	-0.013580	-0.026093	-0.001984	
0.016937	-0.003510	-0.059968	-0.003204	
-0.031281	0.004120	0.148470	-0.001373	
-0.047761	0.020294	0.559243	-0.002899	
-0.063630	0.027313	0.095675	-0.010223	
-0.047151	0.040132	-0.135653	-0.002289	
-0.037080	0.030975	-0.071565	-0.013885	
-0.033113	0.036775	0.061494	-0.009613	
-0.041047	0.012970	-0.261692	-0.000153	
-0.019073	-0.007782	-0.383459	-0.002899	
-0.003510	-0.015717	0.085603	-0.012054	
0.016937	-0.001984	0.261997	0.015411	
-0.016327	-0.005646	0.385900	-0.007477	
-0.026093	0.001678	0.339818	-0.006256	
-0.026398	-0.006866	-0.026093	-0.010529	
-0.016937	0.001068	-0.184176	-0.007477	
0.007782	-0.012054	0.148470	-0.013275	
0.020294	-0.012970	0.364233	-0.020294	
0.025787	-0.005341	-0.074616	-0.019989	
0.036469	0.009308	-0.299230	-0.022125	
0.042268	0.020905	-0.471962	-0.019379	
0.057832	0.018768	-0.595560	-0.005035	
0.052949	0.004730	-0.314488	0.004120	
0.049287	-0.001373	-0.104525	0.009918	
0.037080	-0.012970	-0.066377	0.023651	
-0.055696	-0.027008	0.665446	0.012665	
-0.108492	-0.037385	0.540933	-0.000763	
-0.179599	-0.023041	-0.027313	-0.030670	
-0.165256	-0.014191	0.090180	-0.018158	
-0.133516	-0.031281	0.101473	-0.011749	
-0.095980	-0.026398	0.071870	-0.003204	
-0.017548	-0.019684	-0.319676	0.002289	
0.055390	-0.019073	-0.242466	0.000458	
0.079804	-0.006866	0.181735	-0.014191	
0.087434	0.008698	0.344091	-0.020599	
0.078889	0.011749	0.262608	-0.017548	
0.077973	0.007172	0.358130	-0.003510	
0.099947	0.006866	0.173800	0.012665	
0.071870	0.007172	-0.050202	0.011139	
0.037080	0.009003	-0.187839	0.001068	
0.003204	0.012054	-0.544595	0.004120	
-0.009308	0.024872	-0.173495	-0.002899	
-0.041352	0.015106	-0.170749	-0.023346	
-0.030975	0.022430	-0.096895	-0.020599	
-0.028229	0.024567	-0.034333	-0.015411	
-0.032197	0.016327	-0.300145	0.005951	
-0.043183	0.016632	-0.164645	0.011139	
0.061799	0.010834	-0.165256	-0.005646	
0.373388	0.007172	-0.106661	-0.017853	
0.347143	0.013885	0.103609	-0.010529	
0.026398	0.022430	0.216830	-0.004120	
-0.133516	0.021820	0.006866	-0.011139	
-0.164645	0.016632	0.149691	-0.009918	
-0.156405	0.014801	0.406653	0.002289	
-0.129244	0.016327	0.467994	-0.003510	
-0.151827	0.012054	0.267796	-0.019073	
-0.249485	-0.002289	0.395361	-0.007172	
-0.198825	-0.004120	0.723736	0.006561	
-0.148165	0.017853	0.023041	0.005341	
-0.097506	0.056916	-0.545205	0.000153	
-0.045320	0.097506	-0.443580	-0.000763	
-0.021210	0.112459	-0.133821	-0.019073	
-0.018158	0.068208	-0.112154	-0.028534	
-0.003815	-0.004120	-0.457923	-0.030670	
0.025177	-0.065461	-0.783856	-0.007782	
0.027924	-0.120394	-0.424354	-0.001984	
0.051118	-0.120089	0.388647	0.011139	
0.063020	-0.103304	0.264439	-0.007782	
0.060273	-0.103304	0.388647	-0.013885	
0.066987	-0.096285	-0.175021	-0.007172	
0.056611	-0.074311	-0.227818	-0.004120	
0.056306	-0.034028	0.361792	0.002289	
0.070954	-0.006866	0.758831	-0.001678	
0.065766	0.010529	0.618448	-0.014496	
0.053864	0.017242	-0.087739	-0.021820	
0.068818	0.007172	-0.001068	-0.024567	
0.080110	0.010529	0.002289	-0.028534	
0.012360	0.021210	-0.247654	-0.023651	
-0.077668	0.005951	-0.619974	-0.025177	
-0.023346	0.018158	-0.236057	-0.001678	
0.029755	0.035249	-0.029449	0.014496	
0.044099	0.030670	-0.276951	0.024261	
0.008698	0.030670	0.196994	0.019379	
-0.014191	0.037385	0.322118	0.000458	
-0.025482	0.037995	0.186618	-0.006256	
-0.047761	0.018463	0.239109	-0.007172	
-0.039826	0.028839	0.199740	-0.004120	
-0.013275	0.040437	0.047151	-0.015717	
0.012054	0.021210	-0.161899	-0.023651	
0.010223	-0.009613	-0.402380	-0.019073	
0.010834	-0.021210	-0.416724	-0.001373	
0.080110	-0.012970	-0.527809	0.010223	
0.054170	0.013885	-0.085908	0.019073	
0.029755	0.106966	0.425574	0.003815	
0.014801	0.131380	-0.090486	-0.009918	
-0.009003	0.028229	0.323644	-0.001678	
-0.026398	-0.052033	0.915999	0.016632	
-0.051423	-0.076142	0.400854	0.002289	
-0.169528	-0.033723	-0.004120	-0.003510	
-0.162509	-0.013885	-0.116732	-0.008087	
-0.043489	-0.025482	-0.138399	-0.011139	
-0.033113	-0.027313	-0.251011	-0.010529	
-0.041047	-0.000763	0.070954	-0.004425	
-0.041047	0.009308	-0.051728	-0.020294	
-0.051728	-0.022430	-0.306554	-0.025482	
-0.049897	-0.038301	-0.160678	-0.014191	
-0.038301	-0.041657	-0.010223	-0.003815	
0.053864	-0.018158	0.453956	0.012360	
0.225071	-0.003815	0.186313	-0.003815	
0.243382	0.017242	-0.346533	-0.014496	
0.080110	0.051118	-0.237583	-0.014191	
-0.024261	0.056916	-0.047456	-0.001678	
-0.092317	0.034638	-0.040742	-0.000763	
-0.079804	0.058442	-0.333714	0.009308	
-0.066987	0.062715	-0.193027	0.005035	
-0.053559	0.030365	0.194247	0.016327	
-0.073091	-0.012360	0.349585	0.003204	
-0.095369	-0.034028	-0.108797	-0.018158	
-0.113070	-0.027313	-0.159457	-0.027313	
-0.070039	-0.016937	-0.128939	-0.017242	
-0.015411	-0.012970	0.600138	-0.014496	
0.009003	0.021820	0.685893	-0.004425	
0.005035	0.067597	0.038911	-0.002899	
0.013275	0.103304	0.271763	-0.006866	
0.040742	0.092317	0.200961	0.000153	
0.070954	0.014191	0.147860	-0.005341	
0.117037	-0.025482	-0.077973	-0.012360	
0.117342	-0.052339	-0.483864	-0.000763	
0.075227	-0.082551	-0.511330	0.022430	
0.019989	-0.081635	-0.208591	-0.001373	
0.002899	-0.074311	-0.053559	-0.018158	
0.011749	-0.073396	-0.362097	-0.015106	
0.000153	-0.077363	-0.296483	0.004120	
-0.046235	-0.053254	-0.402380	-0.003204	
-0.069734	-0.003510	-0.256199	0.000763	
-0.062104	0.013275	0.877241	-0.009308	
-0.041352	0.020599	0.928206	-0.009003	
-0.032502	0.023346	0.251621	-0.017242	
-0.021820	0.023041	0.146639	-0.020599	
-0.022125	0.028229	-0.064546	-0.007172	
-0.009613	0.032197	-0.081941	-0.009308	
0.001984	0.037385	0.232700	0.000763	
0.003204	0.034333	-0.089875	-0.001984	
0.007782	0.030975	-0.296178	0.006256	
-0.003815	0.014191	-0.308995	0.002899	
0.011139	0.007172	-0.141756	0.000458	
0.072785	-0.000763	-0.036775	-0.005035	
0.173190	0.007172	0.206454	-0.014191	
0.118868	0.004425	0.439918	-0.034638	
0.038606	0.010223	0.418250	-0.035859	
-0.016022	0.006561	0.143282	-0.029449	
-0.046540	0.010223	-0.429847	-0.003204	
-0.069734	0.004425	-0.687114	0.009918	
-0.085908	0.000458	-0.149080	0.034333	
-0.098421	0.004730	-0.108797	0.046540	
-0.098421	0.001068	-0.066987	0.023041	
-0.105440	0.002899	0.526588	0.005035	
-0.098116	0.005646	-0.248569	-0.011444	
-0.067292	0.014496	-0.183261	-0.011749	
-0.039216	0.014801	-0.080110	-0.012054	
-0.023346	0.019379	0.201266	-0.010529	
0.009003	0.024261	0.730145	-0.026703	
0.031281	0.014191	0.470131	-0.023651	
0.026703	-0.003510	0.323644	-0.029449	
0.022736	-0.009308	0.313573	-0.009918	
0.025177	-0.011139	-0.065461	-0.006256	
0.026703	0.004425	-0.410010	-0.014496	
0.004425	0.024567	-0.571145	-0.020599	
0.029144	0.030365	-0.585793	-0.025177	
0.042573	0.014496	-0.132906	-0.010529	
0.031281	-0.010834	-0.121004	-0.009308	
0.013885	-0.009918	-0.238194	-0.009613	
-0.006256	0.018463	-0.200046	0.000153	
0.046540	0.059052	-0.045625	0.009918	
0.167087	0.078279	0.224155	-0.001373	
0.048676	0.100863	0.742046	-0.000153	
-0.125277	0.060578	0.379797	-0.004425	
-0.057527	0.018768	-0.187228	0.002899	
-0.043489	-0.063325	-0.084382	0.001068	
-0.048371	-0.113375	0.217135	0.014496	
-0.071565	-0.097811	-0.325780	-0.005646	
-0.067903	-0.094149	-0.612650	-0.017853	
-0.103609	-0.089265	0.091096	-0.018158	
-0.160068	-0.083772	0.657207	-0.013580	
-0.128328	-0.082551	0.532693	-0.013885	
0.027008	-0.040437	0.247044	-0.011444	
0.135042	0.007172	0.129244	-0.015106	
0.134737	0.033113	-0.184176	-0.019989	
0.104525	0.037080	-0.606241	-0.018463	
0.104219	0.034638	-0.523232	-0.014496	
0.185397	0.015106	-0.176242	0.000153	
0.249790	0.019379	-0.187839	-0.016022	
0.209506	0.021820	0.116121	-0.007172	
0.056001	0.084077	-0.166781	0.007172	
-0.106661	0.205234	-0.034638	0.009918	
-0.211642	0.267490	0.638590	-0.000153	
-0.198825	0.135958	0.259556	-0.003204	
-0.183261	-0.027313	0.192721	-0.003815	
-0.193942	-0.103609	0.363623	0.004425	
-0.179599	-0.147554	0.186007	-0.017242	
-0.107882	-0.174411	0.099337	-0.020294	
-0.057527	-0.180820	0.283971	-0.017242	
0.000458	-0.165256	0.150911	-0.003510	
0.072480	-0.136568	-0.175632	-0.012054	
0.106661	-0.067597	-0.252842	-0.012054	
0.098421	0.001984	-0.190280	0.001068	
0.066072	0.048676	-0.241856	0.004425	
0.047761	0.035859	-0.261692	0.005035	
0.040132	0.036775	-0.363623	-0.012054	
0.034028	0.041963	-0.359045	0.003815	
0.028839	0.033418	0.163730	0.012665	
0.029144	0.042573	0.485085	0.015106	
0.029755	0.044099	-0.025787	0.003204	
0.030975	0.055085	-0.151522	-0.005341	
0.022736	0.038911	-0.389257	-0.002899	
0.045930	0.033418	-0.419776	0.018158	
0.084382	0.017853	0.538186	0.005035	
0.074006	0.023956	0.625772	-0.001984	
-0.001984	0.013885	0.188144	-0.022125	
-0.056001	0.015106	0.153963	-0.009308	
-0.094149	0.014496	-0.387732	0.003815	
-0.117647	0.010223	-0.020294	0.006561	
-0.087129	0.020905	0.055390	0.012360	
-0.085908	0.026398	0.042878	-0.013580	
-0.087129	0.038911	0.250706	-0.023956	
-0.074006	0.032197	0.051118	-0.019684	
-0.047761	0.034028	0.145723	-0.016327	
-0.051423	0.017853	0.148470	-0.029449	
-0.048371	0.014191	0.146334	-0.018158	
-0.022430	0.002289	0.147860	-0.023956	
0.007782	0.004120	0.168918	-0.013275	
0.003815	-0.003204	0.036164	-0.017548	
0.015106	0.002899	-0.291295	-0.001984	
0.016327	-0.000153	-0.598612	0.019379	
0.021210	-0.004425	-0.535134	0.019379	
0.031892	-0.007172	-0.151827	0.002899	
0.048676	-0.006866	-0.070649	-0.016632	
0.097200	-0.008087	-0.033418	-0.020599	
0.160373	0.001068	-0.073701	-0.022125	
0.126192	0.026703	-0.155489	-0.026703	
0.023651	0.030060	-0.045625	-0.028534	
-0.025787	0.025177	0.735027	-0.023956	
-0.061189	-0.007172	0.452735	-0.018463	
-0.065461	-0.037080	-0.011749	-0.005646	
-0.060578	-0.063630	-0.125277	-0.003204	
-0.104525	-0.042573	-0.008087	-0.001984	
-0.106050	-0.029449	-0.047761	-0.016022	
-0.063630	-0.011444	0.030670	-0.005035	
-0.072480	0.000458	0.193942	-0.007782	
-0.045625	0.006561	0.410316	-0.013275	
-0.025177	0.009003	0.251316	-0.009308	
0.008392	0.009003	-0.019379	0.005951	
0.020294	0.004730	-0.011749	0.007172	
-0.016327	0.003815	0.117342	0.001068	
-0.049287	0.014801	-0.089265	-0.001068	
-0.046540	0.024567	-0.292821	-0.012054	
-0.033113	0.027008	-0.477455	-0.007477	
-0.031892	0.028839	-0.753643	0.012360	
0.012970	0.034944	-0.503700	0.030975	
0.023041	0.016022	0.164035	0.014496	
-0.002289	0.009308	0.775311	0.003815	
-0.001068	-0.012360	0.148470	-0.027618	
0.039216	-0.048371	0.088044	-0.022736	
0.092011	-0.081941	0.073091	-0.010223	
0.132296	-0.051423	0.204928	-0.009308	
0.128633	-0.027313	0.160678	-0.015106	
0.123446	0.026093	0.053864	-0.003510	
0.078279	0.047456	0.050813	-0.015106	
0.063020	0.039826	-0.055390	-0.009918	
0.173190	0.062409	-0.321507	0.000153	
0.206149	0.082246	-0.101473	0.018158	
0.085298	0.054780	0.149996	0.025482	
-0.020294	0.062104	-0.025787	0.004425	
-0.063020	0.080720	0.031281	-0.011139	
0.088349	0.013885	-0.050508	-0.020294	
0.051728	-0.024261	-0.080415	-0.015106	
-0.224766	-0.034944	0.101168	-0.016022	
-0.308385	-0.041963	-0.005035	-0.003815	
-0.287633	-0.077363	-0.064546	0.001984	
-0.262302	-0.086213	0.348364	0.016022	
-0.205539	-0.053864	0.478981	0.005341	
-0.098421	-0.021515	-0.244602	0.002594	
-0.052949	-0.017242	-0.468605	-0.011139	
-0.113070	-0.013885	-0.290380	-0.022736	
-0.167392	-0.001984	-0.155184	-0.037995	
-0.083161	-0.023651	0.111544	-0.031892	
0.094759	-0.062715	0.456092	-0.006256	
0.154573	-0.084687	0.439612	0.020294	
0.126497	-0.082551	0.100863	0.014191	
0.126802	-0.038301	-0.057527	-0.005646	
0.120394	-0.001984	-0.179599	-0.014191	
0.099031	0.019073	-0.162814	-0.016327	
0.066987	0.074922	0.170749	-0.005646	
0.052033	0.093537	-0.078279	-0.000763	
0.048982	0.071259	-0.358740	0.000763	
0.042573	0.030670	-0.319371	-0.005035	
0.037080	-0.001068	-0.122225	-0.005646	
0.018158	-0.029144	0.486000	-0.008087	
0.022736	-0.032502	0.385290	-0.004120	
0.009613	-0.031587	0.218967	-0.013580	
-0.005035	0.011749	0.127718	0.002594	
-0.016022	0.034333	-0.291905	0.001068	
-0.018158	0.037385	-0.118258	0.000763	
-0.045625	0.062104	0.013275	0.003204	
-0.059358	0.046845	0.257725	0.001984	
-0.050508	0.026398	0.286107	0.005035	
-0.017548	0.033418	-0.148775	-0.010223	
-0.010834	0.038606	-0.184787	-0.004425	
0.014496	0.036164	-0.281224	0.008087	
0.048982	0.043489	-0.328221	-0.005035	
0.024872	0.048066	-0.262608	-0.025177	
0.002289	0.038911	-0.079194	-0.011139	
-0.015411	0.008392	0.097506	-0.005035	
-0.009003	0.006561	0.210422	-0.000153	
-0.014191	-0.011749	0.073396	-0.018463	
-0.006866	-0.014191	0.002899	0.005951	
-0.028839	-0.019989	0.332494	0.005951	
-0.026093	-0.017242	0.510414	-0.011444	
-0.002289	-0.017853	0.216220	-0.019989	
-0.019684	-0.014191	0.020294	-0.016632	
-0.051423	-0.011444	-0.082246	-0.019073	
-0.065461	0.003204	-0.149691	-0.005646	
-0.060578	0.005951	-0.164950	-0.013275	
-0.041963	0.005646	0.117037	-0.014191	
-0.056916	0.012054	0.309606	-0.003510	
-0.090180	0.019379	-0.580300	0.002899	
-0.054475	0.019989	-0.248569	0.005035	
0.057832	0.002899	0.439307	-0.009308	
0.124361	-0.002899	0.048371	-0.014191	
0.027008	-0.010834	-0.162509	-0.014191	
-0.019073	0.001678	-0.187228	0.004730	
-0.045625	0.000153	-0.494545	-0.000763	
-0.048982	0.007172	-0.254673	-0.010529	
-0.037995	0.030365	0.067597	-0.015717	
-0.021210	0.056306	0.218661	-0.022430	
0.011139	0.014496	0.315404	-0.020599	
0.028839	-0.010834	0.301366	-0.010223	
0.038301	-0.038606	0.111238	-0.015411	
0.037080	-0.072480	-0.001373	-0.010529	
0.023651	-0.070039	-0.224766	0.004120	
-0.009003	-0.053254	-0.279697	-0.008392	
-0.031281	-0.015106	-0.112459	-0.007172	
-0.020294	0.030670	0.114901	-0.009003	
0.043794	0.048982	0.558328	-0.005035	
0.129244	0.039826	0.101168	-0.013275	
0.108187	0.016632	0.125582	-0.011444	
0.032807	-0.027313	-0.002289	-0.007172	
-0.014801	-0.032502	-0.102694	-0.000153	
-0.075227	-0.018158	-0.313268	-0.007172	
-0.066987	0.013275	-0.197299	-0.001678	
-0.033113	0.022125	0.503090	-0.005035	
0.013885	0.016022	0.115206	-0.008087	
0.022736	0.020294	0.108797	-0.007477	
0.048676	0.067597	0.355688	-0.006256	
0.078279	0.088349	0.300145	-0.001984	
0.049897	0.052644	-0.147249	-0.003510	
-0.005341	-0.002899	-0.565957	-0.014191	
-0.049897	-0.070039	-0.532998	-0.013275	
-0.053254	-0.116121	-0.266880	-0.007172	
-0.047761	-0.115816	-0.225376	-0.002899	
-0.054170	-0.091706	-0.037690	0.010223	
-0.056306	-0.055390	0.420997	0.012054	
-0.097506	-0.007477	0.563210	0.009003	
-0.103304	-0.006256	0.000153	-0.013580	
-0.057221	0.008087	-0.030365	-0.016022	
-0.026398	0.002899	0.178073	-0.003510	
0.013885	0.002289	-0.213168	0.010834	
0.027008	0.020905	-0.209506	-0.004120	
-0.010223	0.030975	-0.052949	-0.000763	
-0.059663	0.028839	0.074616	-0.012360	
-0.048066	0.039826	-0.029755	-0.010529	
-0.021820	0.028229	-0.084077	-0.016022	
0.001984	0.012970	-0.076447	-0.013580	
0.027924	0.044099	-0.062104	-0.007782	
0.051118	0.034638	0.146334	0.005341	
0.050813	0.022736	0.267490	0.012360	
0.022125	0.018768	-0.181735	0.015106	
0.000458	0.013275	-0.121004	0.030975	
-0.011139	0.026093	-0.152437	0.016022	
0.006256	0.008698	-0.005035	0.000763	
0.020905	0.010223	0.181735	-0.015106	
0.019989	0.014496	-0.087129	-0.012970	
0.019989	-0.001984	-0.171969	-0.019073	
0.033113	0.012054	0.061799	0.001068	
0.022736	0.001984	-0.008392	0.012665	
0.024261	0.004425	0.547952	0.028229	
0.023956	0.005035	0.941329	0.012665	
0.017853	0.005951	0.280003	-0.027618	
0.026093	0.009308	0.287938	-0.038606	
0.029755	0.010834	0.318456	-0.028534	
0.018768	0.008087	-0.010223	-0.022736	
0.008392	-0.002289	-0.461890	-0.022430	
0.014191	0.000458	-0.720684	-0.002289	
0.023651	-0.004120	-0.480812	0.009003	
0.022430	0.008087	-0.450904	0.014496	
0.008392	0.014191	-0.092317	0.006561	
0.059968	0.021820	0.075227	0.008698	
0.094454	0.016022	-0.111238	-0.007477	
0.116121	0.023956	0.055390	-0.009003	
0.019073	0.024567	0.360876	-0.013580	
-0.109102	0.057527	0.284886	-0.009308	
-0.195773	0.121004	-0.034028	-0.010529	
-0.114290	0.047456	0.001068	-0.020599	
-0.056306	-0.042268	0.087129	-0.023956	
-0.118258	-0.071259	-0.049287	-0.028839	
-0.131380	-0.057221	-0.088349	-0.023651	
-0.094149	-0.008392	-0.135653	-0.012970	
-0.066987	0.035249	-0.135347	-0.009918	
0.008392	0.023956	-0.175937	-0.006256	
0.077058	-0.034944	-0.435950	0.006866	
0.023956	-0.099337	-0.283055	-0.004120	
0.020294	-0.110018	0.488136	0.003204	
0.010529	-0.128633	0.870527	-0.011444	
-0.028839	-0.147554	0.536050	-0.013275	
-0.037690	-0.094759	0.121309	-0.019379	
-0.058137	0.014801	-0.095980	-0.007172	
-0.117647	0.056306	-0.359961	0.002899	
-0.116121	0.059052	0.050202	0.001678	
-0.074311	0.051423	0.458533	-0.001984	
0.094454	0.020905	0.308080	-0.014191	
0.194858	0.026703	-0.380407	-0.007782	
0.110628	0.089265	-0.680095	-0.005035	
-0.034944	0.099337	-0.284886	-0.005341	
-0.019684	0.082551	-0.069734	-0.014191	
-0.014801	0.041047	0.085298	-0.021210	
-0.034028	0.030365	-0.098421	-0.024261	
-0.035554	0.044099	0.030060	-0.021820	
-0.040437	0.010223	0.106050	-0.015717	
-0.029755	-0.013885	-0.037690	-0.006256	
-0.008087	-0.005035	0.107271	-0.016022	
0.070344	-0.001678	0.329747	-0.015717	
0.087129	-0.050202	-0.051728	-0.017548	
0.023651	-0.079804	-0.231174	0.002289	
0.019989	-0.073396	-0.432899	-0.005035	
0.025177	-0.026398	-0.447547	0.008087	
0.023956	-0.035859	-0.112764	0.036775	
0.042878	-0.015717	0.673381	0.041047	
0.046845	0.012970	0.680400	0.003204	
0.048676	0.026093	0.031587	-0.021820	
0.048982	0.025787	0.005951	-0.032197	
0.026398	0.023346	-0.041352	-0.019073	
0.008392	0.009918	0.307469	0.002289	
-0.011749	-0.012360	0.344702	0.012970	
-0.023651	0.003815	0.360876	0.023651	
-0.009003	0.011139	0.168612	0.009918	
0.000458	0.030670	-0.569924	0.008087	
-0.008392	0.045014	-0.604715	0.010834	
-0.017242	0.048676	-0.238499	0.008392	
-0.049592	0.037385	-0.280003	-0.000763	
-0.046235	0.029755	-0.211642	0.005035	
-0.046540	0.009308	0.157626	-0.006866	
-0.038301	-0.005646	0.484169	-0.017853	
-0.024872	-0.019989	0.384375	-0.023346	
0.020599	-0.027313	-0.141756	-0.014191	
0.038606	-0.040132	-0.193637	-0.011139	
0.026398	-0.027924	-0.341954	-0.009003	
-0.000153	-0.007172	-0.184176	-0.012054	
-0.025482	0.017242	0.245518	-0.018463	
-0.019989	0.030365	0.245823	-0.014496	
-0.019684	0.027924	0.099031	-0.013275	
-0.023956	0.037995	-0.056916	-0.009308	
-0.028229	0.028839	0.193332	0.009003	
-0.011749	0.035249	0.241245	0.018768	
-0.007782	0.034638	0.115511	-0.012054	
-0.003510	0.019073	-0.115511	-0.012054	
-0.018158	-0.013275	-0.055696	-0.002899	
-0.021820	-0.009308	0.144808	-0.005035	
-0.003815	0.018768	0.435645	-0.010529	
0.052033	-0.005341	0.240635	0.002289	
0.134432	-0.049592	-0.255894	-0.007172	
0.172580	-0.048371	-0.507668	-0.015106	
0.084077	-0.057221	-0.484474	-0.015717	
-0.009003	-0.049897	-0.240330	-0.012054	
-0.070039	0.024872	-0.159457	-0.011139	
-0.128633	0.134432	0.085603	0.002289	
-0.142061	0.186007	-0.045625	0.002594	
-0.167697	0.062715	-0.345617	0.000153	
-0.176547	-0.049897	0.083467	-0.003510	
-0.123751	-0.115511	0.618753	-0.021820	
-0.066377	-0.149996	0.044709	-0.022736	
-0.041352	-0.117647	0.193027	-0.017242	
-0.012054	-0.076447	0.244602	0.000763	
0.020905	-0.075227	-0.230564	0.003815	
0.039216	-0.014191	-0.244602	0.012665	
0.020294	0.049287	-0.191195	0.002899	
0.016937	0.074616	0.272068	0.001068	
-0.003815	0.036164	0.528725	-0.023651	
-0.000153	0.008698	0.160678	-0.024261	
0.020905	0.004425	-0.000153	-0.007172	
0.034333	0.007172	0.174716	0.000763	
0.029755	0.004425	0.123751	-0.011139	
0.033723	0.004120	-0.121614	-0.007172	
0.043183	0.009308	-0.395361	-0.002899	
0.095369	0.016022	-0.417945	-0.015106	
0.131380	0.026093	-0.333104	-0.012054	
0.027924	0.029755	-0.220493	-0.018463	
-0.027618	0.039216	0.263523	-0.016022	
-0.066072	0.037995	0.538186	-0.015411	
-0.059968	0.046235	0.379797	-0.000763	
-0.046540	0.027313	0.028839	0.012360	
-0.019684	0.026703	-0.070649	0.038301	
-0.013580	0.004730	-0.017548	0.017548	
0.018768	0.005646	-0.207980	0.004425	
0.034333	0.005646	-0.131075	-0.013885	
0.045930	0.011139	0.074922	-0.017853	
0.050813	0.000153	0.189975	-0.029449	
0.046540	0.000153	-0.030365	-0.023651	
0.008392	-0.005646	-0.079804	-0.023346	
0.014191	-0.003815	-0.178683	-0.017242	
0.048982	-0.009308	0.023041	-0.001373	
0.016327	-0.004425	0.222630	0.004425	
0.028534	0.007782	0.446021	0.007172	
0.198825	0.003204	0.067903	-0.000153	
0.099947	0.015106	-0.457618	-0.002899	
-0.059358	0.053254	-0.537881	-0.001678	
-0.144197	0.103609	-0.514992	0.011139	
-0.152437	0.086823	-0.003815	0.004425	
-0.193942	0.047456	0.482033	0.008392	
-0.239719	0.011749	0.347448	0.013885	
-0.155794	-0.019684	0.272984	0.022430	
-0.133211	-0.057221	0.187228	0.005035	
-0.131380	-0.085603	0.095980	-0.001984	
-0.070954	-0.102083	-0.159762	-0.010223	
-0.021820	-0.100863	-0.077668	-0.021515	
0.028229	-0.098726	-0.036469	-0.017548	
0.048066	-0.066682	-0.043794	-0.026398	
0.070954	-0.011444	0.162204	-0.017242	
0.116121	-0.009308	0.037690	-0.003510	
0.119478	-0.016327	0.186007	0.000153	
0.122225	-0.017548	0.048676	-0.009308	
0.166171	-0.008392	-0.164035	-0.005341	
0.173495	0.024872	0.082856	-0.026398	
0.129549	0.028839	0.100863	-0.021515	
-0.023346	-0.002289	-0.248264	-0.015106	
-0.049287	0.003204	-0.155794	0.001068	
-0.031281	-0.013885	0.011139	0.009003	
-0.061494	-0.006256	-0.278477	0.020905	
-0.134737	0.034028	-0.269932	0.014801	
-0.167697	0.070039	-0.422523	-0.004120	
-0.106661	0.058442	0.035554	-0.010529	
-0.059968	0.033113	0.081025	-0.009308	
-0.046235	0.039826	0.437476	-0.013580	
0.062715	0.049287	0.371252	-0.016022	
0.402685	0.045930	0.135653	-0.020599	
0.445411	0.090180	-0.057832	-0.019989	
0.203403	0.149996	-0.102083	0.005035	
-0.015411	0.118563	-0.012360	0.012970	
-0.175937	0.071259	0.456092	0.009308	
-0.216525	0.005646	0.353857	-0.005341	
-0.186007	-0.040132	-0.019379	-0.008392	
-0.189364	-0.095675	-0.130770	-0.030060	
-0.155184	-0.168918	0.110323	-0.026703	
-0.128328	-0.196689	0.196689	-0.019073	
-0.097506	-0.139009	-0.167087	-0.014191	
-0.065766	-0.107576	-0.506142	-0.019989	
-0.025482	-0.070344	-0.307164	-0.006866	
-0.002289	0.008698	-0.148470	0.010223	
0.012054	0.022125	-0.012360	-0.002289	
0.010223	0.015106	0.245823	-0.000763	
-0.008392	0.012054	-0.071870	0.000458	
-0.017242	0.020905	0.118258	-0.003204	
-0.023956	0.033113	0.272984	-0.016022	
0.009003	0.050508	0.117342	0.005035	
0.025787	0.027313	-0.021820	0.016937	
0.037080	0.029144	-0.272678	0.025177	
0.022736	0.038301	0.179904	-0.000763	
0.022736	0.038301	0.105440	-0.019684	
0.024261	0.040742	0.034333	-0.030060	
0.025787	0.036775	0.123140	-0.025482	
0.025177	0.029755	0.136568	-0.019989	
0.038606	0.030670	0.195163	-0.025177	
0.043794	0.014496	0.145723	-0.026398	
0.052949	0.011139	0.026093	-0.022125	
0.065156	0.004120	-0.161899	-0.021820	
0.073396	-0.000763	-0.268101	-0.003510	
0.064240	0.014801	-0.195773	0.002899	
0.036469	0.034333	-0.013580	-0.013580	
0.040132	0.022125	-0.032502	-0.022736	
0.031892	-0.000763	-0.137178	-0.016632	
0.047761	-0.001068	-0.055696	-0.002289	
0.018768	0.030975	-0.058747	-0.002899	
-0.065766	0.017242	-0.240330	0.000763	
-0.128023	-0.041047	0.074006	-0.008392	
-0.131990	-0.034028	0.186007	-0.001678	
-0.114595	-0.035249	-0.202182	-0.000153	
-0.099337	-0.024261	-0.242771	0.002899	
-0.088044	0.005951	0.115511	0.001068	
-0.114595	0.014496	0.235142	0.006256	
-0.152742	-0.015717	0.142672	-0.007477	
-0.113680	-0.044099	0.354162	-0.014191	
-0.045014	-0.019684	0.127108	-0.011444	
0.034028	0.005646	-0.075837	-0.012970	
0.106356	0.010834	-0.197299	-0.011444	
0.095064	0.019379	-0.106050	-0.026398	
0.064240	0.026093	0.257420	-0.014496	
0.012054	0.013275	0.375219	-0.006866	
-0.001068	0.010223	0.004730	-0.008087	
0.016937	0.000153	-0.606852	-0.001373	
0.050813	0.010529	-0.557412	0.018768	
0.085908	0.000763	0.078889	0.015106	
0.129244	0.028839	0.303502	0.015411	
0.125277	0.047456	0.159457	-0.010223	
0.101473	0.070039	0.152742	-0.019989	
0.058137	0.050202	0.248569	-0.027924	
0.008392	0.091401	0.226902	-0.019073	
-0.069734	0.125277	0.186618	-0.001984	
-0.076447	0.068513	-0.297399	0.025482	
-0.046235	-0.016937	-0.251011	0.029449	
-0.015411	-0.067903	-0.026398	0.003204	
0.004425	-0.073396	-0.033723	-0.016327	
0.010529	-0.097811	0.025177	-0.013275	
0.042878	-0.145113	-0.237583	0.000153	
0.086213	-0.165256	-0.100557	0.004120	
0.181735	-0.123751	0.099031	0.010834	
-0.043794	-0.074311	0.277866	0.000763	
-0.225376	-0.007477	0.218356	-0.011139	
-0.232090	0.048066	-0.045625	-0.020294	
-0.202487	0.070649	0.131990	-0.005646	
-0.116732	0.092927	-0.109407	0.005035	
-0.066987	0.162509	-0.554666	0.016022	
-0.019684	0.056916	-0.406653	0.008087	
-0.040132	-0.078279	0.574197	-0.001373	
0.007172	-0.186923	0.157626	-0.015717	
0.085298	-0.217135	0.100252	-0.021820	
0.108492	-0.114290	0.071259	-0.015717	
0.068818	0.002594	-0.056306	-0.016022	
0.032502	0.040437	-0.066072	-0.015106	
0.010834	0.056916	-0.156405	-0.009613	
0.023956	0.079194	0.144808	-0.000153	
0.004730	0.073396	0.602884	-0.002289	
-0.003204	0.064546	0.312047	-0.004425	
-0.005341	0.043489	-0.029144	-0.003815	
0.023041	0.050813	-0.391088	-0.002289	
0.048066	0.060578	-0.451819	0.018158	
0.050508	0.058137	-0.117037	0.034638	
0.068208	0.030975	-0.031281	0.011139	
0.115206	0.030365	0.444800	-0.005035	
0.086213	0.021820	0.042573	-0.019989	
0.059358	0.008698	-0.078584	-0.012970	
0.044404	-0.005646	0.356298	-0.006256	
-0.019379	0.003204	0.036164	-0.001678	
-0.081330	0.035249	-0.379187	-0.014191	
-0.116426	0.040742	-0.268406	-0.020599	
-0.126497	0.009003	0.095369	-0.015411	
-0.105745	-0.027618	0.230259	-0.019989	
-0.086213	-0.045930	0.152132	-0.034944	
-0.105440	-0.048676	-0.003204	-0.032197	
-0.095369	-0.027008	-0.139620	-0.002289	
-0.078279	-0.010834	-0.173190	-0.002899	
-0.021515	0.020599	-0.164645	0.008392	
0.030975	0.030365	-0.287938	0.005035	
0.037080	0.039216	0.068818	0.005951	
0.026703	0.033418	0.154573	-0.001984	
0.020599	0.025177	-0.044404	0.008087	
0.013275	0.023041	0.235142	0.005951	
0.009003	0.023041	0.251316	-0.011139	
-0.017853	0.039216	-0.056306	-0.023651	
-0.041657	0.030975	0.131380	-0.011139	
-0.076142	0.021820	0.070039	-0.006256	
-0.005035	0.000153	0.206149	-0.009308	
0.005951	-0.007172	-0.095064	-0.011139	
-0.001068	0.010834	-0.102083	-0.023651	
0.025787	0.016022	0.058747	-0.013275	
-0.001068	0.009308	0.134127	-0.015717	
-0.022125	-0.002289	0.352636	-0.016022	
0.006256	-0.005646	-0.096285	-0.019379	
0.132601	-0.001068	-0.201571	-0.005646	
0.141146	-0.035554	-0.280918	-0.007782	
0.068818	-0.093843	-0.171359	0.006561	
-0.014191	-0.125887	-0.160983	0.000458	
-0.036164	-0.108797	-0.113070	0.007172	
-0.033723	-0.031892	0.150606	0.011444	
-0.010834	-0.006866	0.018768	0.001984	
-0.019684	0.003815	0.171664	-0.019379	
-0.030975	0.029144	0.096285	-0.013580	
-0.023651	0.072175	0.063020	-0.017853	
-0.005951	0.095369	0.072480	-0.026398	
0.118563	0.092927	0.074616	-0.019684	
0.143282	0.097200	-0.060578	-0.017853	
0.011139	0.052033	-0.169528	-0.007477	
-0.030975	0.023346	-0.293126	0.004120	
-0.023346	-0.000763	-0.164645	0.033113	
-0.021210	-0.038301	0.510719	0.031587	
-0.065766	-0.063325	0.336156	0.012360	
-0.070954	-0.104525	0.060578	-0.007782	
-0.047761	-0.115511	-0.044099	-0.019989	
0.009918	-0.109407	-0.102999	-0.028839	
0.001068	-0.092011	0.015411	-0.001678	
-0.121920	-0.013275	0.011139	-0.012054	
-0.143282	0.032502	-0.124056	-0.022430	
-0.117342	0.030670	-0.149385	-0.026398	
-0.030365	0.024567	-0.136873	-0.019073	
0.013275	0.048982	0.036775	-0.008392	
-0.014801	0.055085	0.198215	-0.000763	
-0.098116	0.041963	0.341344	0.003204	
0.025177	0.039826	0.173800	-0.003510	
0.184787	0.028839	0.042878	-0.001984	
0.217135	0.049897	-0.393835	-0.005341	
0.114595	0.165561	-0.384069	0.005035	
-0.092317	0.133211	-0.046540	-0.008087	
-0.174411	-0.033723	-0.205234	-0.005951	
-0.106050	-0.178683	-0.140841	-0.015717	
-0.052949	-0.190585	0.089570	-0.012054	
-0.054170	-0.155794	0.093537	-0.010223	
-0.077363	-0.076142	0.135653	0.002289	
-0.100557	-0.047151	-0.020294	-0.001373	
-0.108187	-0.013885	-0.202487	0.009918	
-0.029755	0.046235	-0.038606	0.008698	
0.094149	0.105135	-0.064240	0.003815	
0.153658	0.110323	-0.333714	-0.019379	
0.134432	0.067597	0.287938	-0.022125	
0.095980	0.077058	0.717631	-0.017242	
0.049287	0.045014	0.490273	-0.009918	
0.030365	0.025177	0.417640	-0.007477	
0.008698	0.030670	0.474709	-0.013275	
0.024872	0.038606	0.564736	-0.005341	
0.042268	0.027008	0.329442	-0.016327	
0.037995	0.026703	-0.018463	0.002899	
0.030365	0.015106	-0.356604	0.012665	
0.031281	-0.008392	-0.702983	0.019379	
0.022125	-0.020905	-0.573892	0.002289	
0.049287	-0.007172	-0.340734	-0.016022	
0.032502	0.014191	-0.603495	-0.016327	
-0.009613	0.021820	-0.319371	-0.006256	
-0.052339	0.006561	0.137789	-0.011139	
-0.070039	0.016632	-0.023651	-0.015106	
-0.034333	0.004120	-0.124056	-0.014191	
0.118563	-0.028534	-0.179599	-0.010529	
0.104525	-0.019073	-0.132601	0.010834	
-0.118258	-0.006256	0.139925	0.012054	
-0.201571	-0.023041	0.394140	0.002899	
-0.153658	-0.035859	0.277561	-0.013275	
-0.087739	-0.046540	0.016632	-0.009308	
-0.042878	-0.071870	-0.078584	-0.017242	
0.014496	-0.071870	-0.041352	-0.012054	
0.010223	-0.037385	0.097506	-0.014496	
0.015106	0.011749	0.406959	-0.000153	
0.036469	0.005035	0.510414	-0.005951	
0.022736	0.007172	0.218356	0.003815	
-0.009003	0.023346	-0.080720	0.009003	
0.015106	0.056001	-0.052644	0.018463	
0.006561	0.068818	0.167087	0.019379	
-0.092622	0.074311	-0.285192	-0.003204	
-0.161288	0.089570	-0.486305	-0.015717	
-0.111238	0.124361	-0.183871	-0.017548	
-0.046235	0.066682	0.404211	-0.024567	
0.005646	0.004120	0.661174	-0.024567	
0.024872	-0.075227	0.173495	-0.010223	
-0.013885	-0.104525	-0.020599	-0.012970	
-0.018158	-0.099642	0.166171	-0.011444	
0.007782	-0.095980	0.029144	-0.017242	
0.065766	-0.039216	-0.267796	-0.011749	
0.098726	-0.025482	-0.320897	-0.020599	
0.102083	-0.007172	-0.522621	0.005341	
0.062409	0.016022	-0.373693	0.008392	
0.044404	0.042878	-0.128939	-0.005646	
0.039826	0.036775	-0.041657	-0.019989	
-0.003510	0.036775	-0.088044	-0.011749	
-0.022430	0.016022	-0.099031	-0.001373	
0.007172	0.002289	-0.093843	-0.003510	
0.037995	0.009308	-0.047761	-0.012970	
0.046235	0.005646	-0.007172	-0.010529	
0.036469	-0.010834	0.235447	-0.016022	
0.006866	-0.016937	0.445411	-0.010223	
0.012054	0.004120	0.074616	-0.001373	
0.013275	-0.008087	-0.191195	-0.002899	
-0.009613	-0.017548	-0.219273	0.004425	
-0.019379	-0.012360	0.277256	-0.001678	
0.016937	0.008087	0.640726	0.006866	
0.017242	0.002289	0.379187	0.005035	
-0.023346	0.026703	0.186618	0.002594	
-0.037385	0.031892	0.008698	-0.012970	
-0.005035	0.038301	-0.019379	-0.009003	
0.042268	0.031281	-0.212558	-0.006256	
0.040742	0.029755	-0.570840	0.000153	
-0.059358	0.029144	-0.446631	0.001984	
-0.050508	0.018768	0.303197	0.011444	
0.021820	0.009003	0.289464	-0.002899	
0.036775	-0.008392	-0.118563	-0.019684	
0.007172	-0.020905	-0.081025	-0.009308	
-0.039216	-0.037385	-0.044404	0.009308	
-0.085908	-0.024872	0.083161	0.011444	
-0.066377	0.017242	0.525673	-0.006866	
-0.019379	0.054475	0.043489	-0.009003	
-0.056306	0.068513	-0.355078	-0.001068	
-0.120394	0.054170	-0.472878	0.017548	
-0.232700	0.020294	0.359655	0.014496	
-0.224461	0.006256	0.301061	0.009003	
-0.048982	-0.020905	-0.193637	-0.016327	
0.015717	-0.006866	-0.023651	-0.017853	
0.079804	0.037080	0.069428	-0.017548	
0.128633	-0.088349	0.142672	-0.010223	
0.120699	-0.180209	0.094149	-0.016022	
0.164035	-0.184787	0.102388	-0.013275	
0.137484	-0.130465	0.131380	0.002594	
0.033113	-0.015717	0.080110	-0.004120	
-0.008392	0.047151	-0.113070	-0.012970	
-0.046540	0.042268	-0.255894	-0.025787	
-0.070039	0.034638	-0.333409	-0.019073	
-0.061494	0.043183	-0.369421	-0.007782	
0.044099	0.099642	-0.173800	0.010529	
0.120699	0.077058	0.454566	0.007172	
0.132296	0.075532	0.449683	0.001068	
0.218967	0.163119	-0.031281	-0.012970	
0.031892	0.123751	-0.053559	-0.001373	
-0.134432	0.046845	-0.339818	0.012360	
-0.184176	0.044709	-0.377661	0.020294	
-0.203708	-0.014801	0.248569	0.002594	
-0.202182	-0.079194	0.338902	-0.010223	
-0.133516	-0.123446	-0.023651	-0.018463	
-0.051423	-0.125887	0.142061	-0.023346	
-0.048982	-0.094759	-0.109407	-0.020599	
-0.072175	-0.045625	-0.040742	-0.024567	
-0.047761	0.008698	0.108797	-0.021515	
0.011139	0.026398	-0.031281	-0.023651	
0.021820	-0.003815	0.422523	-0.011444	
0.030670	-0.008392	0.251621	0.006866	
0.026703	0.008698	-0.212558	0.009003	
0.023651	0.015717	-0.181125	0.000153	
0.012054	0.032197	-0.031892	-0.015106	
-0.011139	0.022736	-0.046235	-0.024261	
-0.013580	0.012054	-0.086213	-0.005646	
-0.009613	-0.005341	0.077668	-0.014191	
0.003204	0.023956	0.026398	-0.012054	
0.013275	0.066377	0.005951	-0.006256	
0.037995	0.041047	0.045320	-0.005646	
0.060578	0.010529	0.184787	-0.008392	
0.093232	-0.010834	0.207370	-0.012970	
0.242466	-0.009918	0.162204	-0.006256	
0.347754	0.017853	0.036775	-0.004120	
0.120394	0.059968	-0.383459	0.005035	
-0.085908	0.068513	-0.290990	0.013885	
-0.128023	0.056306	-0.176242	0.010529	
-0.083467	0.024872	-0.153658	-0.014191	
-0.045930	0.001678	-0.324864	-0.012054	
-0.045014	-0.044404	-0.266880	-0.015106	
-0.078584	-0.054170	-0.031281	0.001678	
-0.144503	-0.078584	0.140230	-0.006256	
-0.161288	-0.098421	0.341344	-0.008087	
-0.095369	-0.062409	0.453345	-0.003204	
-0.037080	-0.027008	0.050202	-0.008087	
-0.012970	-0.027313	0.002594	-0.014496	
0.008087	0.006256	-0.159152	-0.010529	
0.012054	0.040132	0.150606	-0.011749	
0.012970	0.061189	0.479286	-0.003815	
0.045930	0.050813	0.077668	-0.011444	
0.057832	0.016327	0.111849	-0.017242	
0.045014	0.016937	0.082856	0.003815	
0.004730	0.013885	0.141146	0.010834	
-0.009003	0.007172	0.134127	0.005341	
-0.020294	-0.001373	0.157321	-0.012360	
-0.031587	0.005646	0.056916	-0.000763	
-0.029449	-0.000153	-0.092317	-0.016022	
0.000153	0.010834	-0.104219	-0.011444	
0.012360	0.020294	0.159457	-0.013580	
0.016937	0.008087	0.001068	-0.004425	
-0.002899	-0.023956	-0.220188	-0.009003	
0.007782	-0.012970	-0.708476	-0.005951	
0.034333	-0.006866	-0.947738	0.000153	
0.093843	-0.004120	-0.502480	0.016937	
0.110628	-0.001373	-0.427711	0.008698	
0.081025	0.014191	0.325475	0.004425	
0.012054	0.028839	0.402380	-0.008392	
-0.049592	0.041047	0.558633	-0.027618	
-0.061799	0.048371	0.438697	-0.025482	
-0.027618	0.067597	0.168002	-0.018463	
-0.010223	0.063325	0.025482	-0.005341	
-0.081330	0.062715	-0.102388	0.004425	
-0.125582	0.030365	-0.063630	-0.000763	
-0.077973	-0.019379	-0.230259	-0.015411	
-0.020905	-0.070344	-0.132906	-0.012054	
0.055085	-0.132601	-0.048676	-0.019684	
0.132296	-0.153048	0.213168	0.011139	
0.093232	-0.140841	0.710002	0.028839	
0.009918	-0.027924	0.342259	0.001678	
-0.095980	0.108187	0.113375	-0.026703	
-0.101473	0.179904	0.129854	-0.033723	
0.012970	0.114595	0.084687	-0.023651	
0.186313	-0.008392	0.061494	-0.009003	
0.004730	-0.081941	-0.047761	0.001984	
-0.099337	-0.091401	-0.512856	0.009918	
-0.062104	-0.047761	-0.299535	0.014496	
0.046540	-0.041047	0.002289	-0.009918	
-0.047151	-0.005341	0.105440	-0.024261	
-0.129244	0.048982	-0.228733	-0.022125	
-0.156711	0.063020	-0.495155	-0.001373	
-0.121309	0.071565	-0.406653	0.008087	
0.003815	0.036775	0.413367	0.010529	
0.034028	-0.018158	0.219578	-0.011749	
-0.011444	-0.086213	-0.027008	-0.009613	
-0.014801	-0.135653	-0.173495	0.000153	
-0.012360	-0.124971	0.192111	0.002899	
0.000458	-0.102083	0.533303	-0.003510	
0.023956	-0.059663	0.109102	-0.006256	
0.038606	0.012360	-0.077973	-0.019684	
0.019989	0.048066	-0.178988	-0.018158	
-0.007477	0.054170	-0.130465	-0.015411	
0.007782	0.046845	0.016937	-0.013580	
0.061189	0.051423	0.265354	-0.006866	
0.127108	0.069428	0.540322	-0.005951	
0.092011	0.095369	0.478981	0.008392	
0.000763	0.084992	0.301061	-0.009613	
-0.032197	0.078584	0.186923	-0.000153	
-0.047151	0.070649	-0.399939	0.007782	
-0.042268	0.074006	-0.921187	0.006561	
-0.027618	0.014496	-0.996262	0.004120	
-0.006256	-0.019684	-0.648050	0.005341	
0.027008	-0.031281	-0.062715	-0.006256	
0.032197	-0.029755	-0.260471	-0.008087	
-0.013275	-0.066682	0.362707	-0.005646	
-0.055696	-0.040132	1.130541	-0.011139	
-0.065156	-0.041352	0.500648	-0.026703	
-0.029755	-0.028229	0.266575	-0.026398	
0.006256	-0.003815	0.163730	-0.012054	
0.035249	0.033418	-0.393835	0.003815	
0.036469	0.032197	-0.214389	0.000458	
0.004120	0.014801	0.041352	-0.009918	
-0.012970	0.019379	0.044404	-0.017548	
-0.013580	0.006256	-0.084382	-0.029449	
-0.012360	0.007782	0.037080	-0.014191	
-0.021210	0.026093	0.232090	-0.021515	
-0.004425	0.021820	0.135347	-0.009308	
0.016937	0.005646	-0.038606	-0.001373	
0.016632	-0.006256	0.054780	0.005035	
0.017853	-0.021210	0.348364	-0.005035	
0.030365	-0.019073	0.186923	-0.010223	
0.025787	-0.006866	-0.232395	-0.000763	
0.024872	0.007172	-0.406348	0.018463	
0.006866	0.007782	-0.158542	0.022430	
-0.047151	0.018158	0.005035	0.002289	
-0.065156	0.038911	-0.023956	-0.017242	
-0.049897	0.034333	-0.369726	-0.025482	
0.012360	0.042878	-0.363623	-0.005951	
0.139315	0.023346	-0.157931	0.005951	
0.105440	0.001068	-0.124666	0.026093	
0.052644	-0.008087	0.524452	0.015411	
0.239414	-0.013885	0.557107	-0.008392	
0.176242	-0.023346	0.005035	-0.032197	
-0.078584	-0.011139	-0.146334	-0.024567	
-0.207675	0.020294	-0.147554	-0.016632	
-0.236668	0.054780	-0.104219	-0.006256	
-0.230564	0.050202	0.102999	0.006866	
-0.190280	0.031892	0.319066	0.012360	
-0.144503	-0.009613	0.427711	0.000763	
-0.089265	-0.062409	0.171054	-0.005035	
-0.079499	-0.068208	-0.037385	-0.004120	
-0.095675	-0.044404	-0.151522	-0.012970	
-0.062104	-0.004120	-0.355078	-0.014496	
0.006256	-0.006256	-0.392309	-0.013885	
0.034333	0.000153	0.045014	-0.005646	
0.052949	0.024567	0.195773	-0.009003	
0.065766	0.023956	-0.161593	-0.014191	
0.037995	-0.005951	0.157321	-0.020599	
0.095980	-0.031587	0.229649	-0.013580	
0.163119	-0.016937	0.093843	-0.001984	
0.113070	0.000763	-0.029755	0.017242	
0.058747	0.001068	0.048676	0.016327	
0.027008	0.065461	0.109713	0.011444	
0.069123	0.153048	0.053254	-0.011139	
0.101168	0.095064	0.014191	-0.007782	
0.027924	-0.022125	-0.053559	0.000458	
-0.139925	-0.075837	-0.343480	0.018463	
-0.258335	-0.089265	-0.007172	0.008698	
-0.206759	-0.066072	-0.007477	-0.005646	
-0.120089	-0.037385	0.025482	-0.032807	
-0.076447	-0.019379	0.354773	-0.039826	
-0.079499	0.000153	0.313878	-0.023651	
0.082246	0.054780	0.085298	-0.017548	
0.192111	0.176242	-0.056306	-0.002289	
0.203403	0.194247	-0.019684	0.001068	
0.163119	0.118563	-0.076753	0.013275	
0.090180	0.052033	-0.350500	0.008698	
-0.000153	-0.047456	-0.312657	-0.012970	
-0.089875	-0.176242	-0.251621	-0.018463	
-0.067597	-0.264744	-0.012970	-0.005035	
0.000458	-0.290990	0.285497	0.000763	
0.003204	-0.206759	0.275425	-0.007782	
-0.032502	-0.075837	0.070649	-0.018463	
0.000458	0.039216	-0.041352	-0.022736	
0.050813	0.060884	-0.066377	-0.006866	
0.086213	0.050508	-0.064851	0.008087	
0.067292	0.046235	-0.157626	0.014801	
0.048676	0.053559	0.085908	0.005035	
-0.006256	0.065461	0.070954	-0.005646	
-0.073091	0.057221	0.234226	-0.019989	
-0.052339	0.059968	-0.321813	-0.005951	
0.121920	0.058747	-0.182956	-0.005646	
0.210727	0.066377	0.303807	0.008087	
0.054170	0.087739	0.420386	-0.005646	
-0.068208	0.125887	0.017853	-0.021515	
-0.169833	0.063630	-0.153353	-0.028839	
-0.193942	0.002289	0.124361	-0.022430	
-0.165256	-0.052644	0.107576	-0.020599	
-0.109713	-0.073396	-0.025482	-0.011749	
-0.101168	-0.103609	-0.218662	-0.003510	
-0.106050	-0.080720	-0.115206	-0.000763	
-0.038911	-0.045320	0.127108	0.000153	
0.036775	-0.038606	0.105745	-0.009003	
0.102694	-0.005646	0.107576	-0.009918	
0.094454	0.056916	0.013275	0.002899	
0.042878	0.045014	-0.261997	0.011444	
0.065156	0.012970	0.047151	0.002594	
0.059358	0.056306	0.023346	-0.006256	
0.030670	0.082551	-0.265049	-0.013885	
-0.005341	0.070649	0.287633	-0.001373	
-0.057221	0.028534	0.237583	0.003204	
-0.070039	0.010834	-0.093843	-0.000763	
-0.075227	-0.012054	0.015411	-0.001984	
-0.078279	-0.029755	0.050202	-0.005035	
-0.067903	-0.029144	0.182956	-0.012054	
-0.033723	-0.005646	0.298924	-0.016327	
-0.011749	-0.015411	0.240635	-0.020294	
0.006866	-0.023956	0.048676	-0.000763	
0.016632	-0.006866	-0.149385	0.002289	
0.030060	-0.019989	-0.835736	0.014496	
0.055085	-0.025482	-0.856489	0.021210	
0.046540	-0.001068	0.188144	0.001678	
0.017853	0.013885	-0.207065	-0.009918	
0.011139	0.010834	-0.341649	-0.012970	
0.005951	0.018768	-0.094759	-0.005035	
-0.011749	0.014801	0.470741	0.008392	
-0.010223	0.028534	0.190890	-0.004120	
-0.029449	0.016632	-0.067597	-0.020294	
-0.033113	0.012665	0.209201	-0.019989	
-0.010223	0.002289	0.382544	-0.028534	
0.042268	-0.003204	0.931563	-0.019379	
0.094149	-0.000763	0.559854	-0.008087	
0.122835	0.012054	0.189975	-0.009918	
0.270542	0.008698	0.170749	0.004425	
0.359350	0.007172	-0.215610	0.012360	
0.066377	0.010529	-0.322423	-0.003204	
-0.160678	0.014801	-0.385595	0.000763	
-0.214084	0.018158	-0.415198	0.013885	
-0.199435	0.036775	-0.345922	0.001984	
-0.187533	0.056306	-0.261692	-0.015106	
-0.203403	0.034638	-0.199130	-0.025787	
-0.182651	0.033418	0.101168	-0.010223	
-0.190280	-0.002899	0.321507	-0.013275	
-0.172275	-0.038606	0.110323	-0.005035	
-0.037690	-0.063935	-0.757610	-0.005341	
0.034944	-0.086823	-0.762188	-0.004120	
0.056916	-0.068208	0.541848	0.001068	
0.088960	0.004730	0.764324	-0.004120	
0.052339	0.046845	0.099337	-0.020599	
0.042268	0.036164	0.254368	-0.022430	
0.189670	-0.021515	0.180820	-0.015411	
0.221714	-0.037385	0.487831	0.005341	
0.107271	-0.055085	0.462806	0.005035	
0.027924	-0.100557	0.040437	-0.011749	
-0.024872	-0.061799	-0.156405	-0.020599	
-0.053864	0.034333	-0.246128	-0.025177	
-0.078279	0.078279	-0.216525	-0.007172	
-0.107576	0.145418	0.048676	-0.003510	
-0.110323	0.121004	0.008392	-0.003204	
-0.074616	-0.013580	-0.294347	-0.003510	
-0.027008	-0.096285	-0.424354	-0.005951	
0.075837	-0.124971	-0.144503	-0.012970	
0.164340	-0.048066	0.065156	-0.002289	
0.058442	0.060884	0.161593	-0.014191	
-0.011139	0.118868	-0.102999	-0.015106	
-0.051423	0.065461	-0.302281	-0.026093	
-0.051118	0.005646	-0.498512	-0.013580	
-0.034944	-0.001373	0.085298	-0.002289	
-0.057527	-0.029144	0.642557	0.013885	
-0.079804	-0.069123	0.481422	0.012054	
-0.049592	-0.059968	0.589456	-0.007477	
0.004425	-0.042268	0.125887	-0.012970	
0.048371	-0.014801	-0.469826	-0.014191	
0.066377	0.032502	-0.342565	0.001068	
0.038911	0.015106	-0.210422	0.008392	
-0.044099	0.021820	0.041352	0.012360	
0.014191	0.032502	0.084992	-0.017242	
0.138094	0.017853	-0.077058	-0.019989	
0.205539	0.027924	-0.011139	-0.015717	
0.180514	0.012970	0.234837	0.007172	
0.063325	0.008392	0.210422	0.011139	
-0.041047	0.056306	0.320287	-0.001984	
-0.094454	0.147249	0.102388	-0.013885	
-0.109102	0.167697	-0.009003	-0.017548	
-0.095980	0.077668	-0.306249	-0.016327	
-0.110018	-0.017242	-0.321202	-0.007477	
-0.093843	-0.117037	-0.182651	0.001678	
-0.056001	-0.165866	-0.524452	-0.004425	
-0.055390	-0.128023	-0.349585	-0.004120	
-0.060578	-0.088349	0.131990	0.002899	
-0.065461	-0.046540	0.865644	0.003204	
-0.002899	-0.050202	0.572061	-0.016327	
0.029755	-0.021210	0.139620	0.003815	
0.035249	0.012360	0.105440	0.000153	
0.036775	0.009308	0.214999	0.005035	
0.032197	0.012970	0.077973	0.016022	
0.033723	0.062715	-0.238804	0.000763	
0.047151	0.051423	-0.447547	-0.009308	
0.085908	0.040132	-0.656901	0.004425	
0.066987	0.040742	-0.306249	0.001678	
0.005035	0.041047	0.431067	-0.007782	
-0.051728	0.017242	-0.140841	-0.016632	
-0.065461	-0.005951	0.021210	-0.014191	
-0.037995	-0.015411	0.065461	-0.015106	
-0.033113	-0.023346	0.127718	-0.007172	
-0.028839	-0.033418	0.246433	0.006256	
-0.030060	-0.007782	0.184176	-0.006256	
-0.019684	0.032502	-0.257114	-0.014191	
-0.012054	0.024872	-0.282140	-0.023346	
-0.013885	0.034944	-0.116732	-0.015106	
-0.011444	0.025177	0.131380	0.003815	
0.032807	0.030670	0.592813	0.035554	
0.042878	0.016022	0.474098	0.024567	
0.078279	0.010834	0.350805	0.012970	
0.168307	-0.008392	-0.188144	-0.003204	
0.129549	-0.007172	-0.236057	0.002899	
-0.031281	0.016632	0.097506	-0.009918	
-0.165256	0.056916	0.186618	-0.026398	
-0.220493	0.042573	0.000458	-0.028229	
-0.175937	0.026703	-0.269016	-0.015106	
-0.152132	0.025177	-0.619364	-0.003204	
-0.133211	0.007172	-0.439002	-0.012970	
-0.095064	-0.031587	-0.242466	-0.024261	
-0.030365	-0.051118	-0.330358	-0.031587	
0.161593	-0.041963	0.092622	-0.003204	
0.405432	-0.031892	0.295262	0.021515	
0.504311	-0.005035	0.339818	0.026703	
0.397802	0.027313	0.465858	-0.003510	
0.037995	0.048066	0.226292	-0.012054	
-0.219578	0.033418	0.083772	-0.015411	
-0.317845	0.030975	0.117647	-0.014191	
-0.254368	0.006256	0.116426	-0.017242	
-0.207980	-0.005035	0.046235	-0.014191	
-0.153658	-0.031587	0.022430	-0.014496	
-0.224461	-0.066072	-0.000763	-0.009308	
-0.261692	-0.031587	-0.043794	-0.005035	
-0.143587	-0.039826	0.030975	-0.011444	
-0.032197	-0.033113	0.134737	-0.001678	
0.019073	0.003815	0.052949	-0.007172	
0.062409	0.070954	-0.152437	-0.005035	
0.050202	0.016632	-0.373999	-0.012054	
0.060273	-0.059052	-0.394140	0.001678	
0.092622	-0.066682	-0.018158	-0.007782	
0.128633	-0.075532	0.308995	-0.011139	
0.109102	-0.051728	0.172580	-0.016632	
0.104525	0.032502	-0.193332	-0.002899	
0.061189	0.074311	-0.363623	0.012665	
-0.010223	0.059052	0.570535	0.010834	
-0.035554	-0.002899	0.129244	-0.021515	
-0.021515	-0.002289	-0.615396	-0.016327	
-0.133211	0.095064	-0.265049	-0.016632	
-0.183566	0.089265	-0.482643	-0.014496	
-0.125277	-0.059968	0.154268	0.009918	
-0.063020	-0.129854	0.542459	0.014496	
0.066072	-0.087434	0.215915	0.001678	
0.243687	-0.020294	-0.110323	-0.014191	
0.228733	-0.043183	0.205844	-0.019989	
0.045320	-0.086518	0.393835	-0.024261	
-0.040437	-0.060273	0.021210	-0.002899	
-0.049592	-0.035859	0.119173	-0.000153	
-0.007477	0.060273	0.008698	-0.009308	
-0.032502	0.080415	0.105440	-0.020599	
-0.059052	0.036469	0.088044	-0.011749	
-0.037080	0.055085	0.036775	-0.011444	
0.014496	0.098726	-0.021820	-0.005035	
0.083467	0.096895	-0.104219	0.000153	
0.111544	0.034028	-0.149080	-0.001984	
0.070344	0.023041	-0.041963	-0.019073	
0.036469	0.056306	0.221104	-0.024567	
0.018463	0.053254	0.182345	-0.019989	
0.012970	0.047456	-0.128939	-0.006256	
0.004425	0.038911	-0.559243	0.003815	
-0.010223	0.026093	-0.646219	0.005341	
0.024872	0.018768	-0.446021	0.011139	
0.037690	0.024567	0.511940	0.013885	
0.063020	0.039826	0.322423	0.029449	
0.105440	0.034944	-0.056916	-0.001373	
0.104830	0.067597	0.354773	0.004120	
0.051728	0.108492	0.058747	-0.005951	
0.000763	0.083467	0.035249	-0.016632	
-0.131990	-0.007782	0.108797	-0.014191	
-0.188144	-0.080415	0.222935	-0.010529	
-0.155184	-0.135958	0.188754	-0.016327	
-0.140230	-0.136568	0.201266	-0.012360	
-0.113375	-0.091706	0.008392	-0.018463	
-0.093232	-0.055390	0.061494	-0.022736	
-0.085603	-0.021210	0.283055	-0.011139	
-0.052339	0.001984	-0.234226	-0.006866	
0.012054	-0.005341	-0.484779	0.000153	
0.037995	-0.066682	-0.876631	0.009918	
0.054475	-0.065461	-0.240330	0.018768	
0.064546	-0.028534	-0.124056	0.009003	
0.056001	0.014801	-0.539407	0.003204	
0.000458	0.002899	0.602579	-0.026093	
-0.015411	0.005035	0.754864	-0.032807	
0.016632	0.004120	0.384069	-0.022430	
0.033113	0.016022	0.352942	-0.005035	
0.027313	0.007782	-0.001678	-0.005035	
0.020905	0.013275	-0.139620	0.007782	
0.026703	0.020599	-0.168918	0.005341	
0.014801	0.009918	-0.073091	-0.003510	
-0.031281	-0.000763	0.042878	-0.020599	
-0.068208	0.003815	-0.002289	-0.018463	
-0.055696	0.008698	-0.040437	-0.007172	
-0.014801	0.003204	-0.498512	0.012360	
0.005951	0.015106	-0.054475	0.020905	
0.012665	0.014191	0.453040	0.003815	
0.033723	0.040742	-0.030365	-0.016022	
0.027313	0.038301	0.076753	-0.026398	
0.028839	0.049897	0.175021	-0.013275	
0.026093	0.043489	0.461890	-0.003204	
0.045320	0.020905	0.142366	0.021210	
0.026093	0.001984	-0.214389	0.005951	
-0.011139	0.010223	-0.308385	-0.007172	
-0.048371	0.002899	-0.250706	-0.017548	
-0.071870	-0.001373	-0.168612	-0.017242	
-0.104525	0.005646	0.045625	-0.011139	
-0.096590	-0.018158	0.066987	-0.005341	
-0.077363	-0.041963	0.231174	-0.012054	
-0.047761	-0.042573	0.060884	-0.009003	
-0.006866	-0.057221	-0.116732	-0.002289	
0.024872	-0.036469	0.045625	0.004425	
0.026398	-0.012360	-0.191501	0.004120	
0.031281	0.022125	-0.287938	0.003815	
0.058747	0.036775	-0.252842	0.010529	
0.081025	0.039826	0.466773	0.015411	
0.088349	0.039826	0.323949	-0.008392	
0.078584	0.043489	0.177157	-0.025482	
0.048676	0.085603	-0.152437	-0.007782	
0.032807	0.092622	0.111849	-0.014191	
0.171359	0.020294	0.447852	-0.010223	
0.209506	-0.047761	-0.139009	-0.022736	
-0.103304	-0.028534	-0.113070	-0.017853	
-0.291600	-0.009308	-0.243687	-0.019073	
-0.311131	-0.029449	-0.117647	-0.012054	
-0.278172	-0.067292	0.017242	-0.018463	
-0.174411	-0.047456	0.006866	-0.022430	
-0.052949	-0.040132	-0.064240	-0.017548	
-0.025177	-0.053254	-0.015717	-0.008087	
-0.038911	-0.061799	0.082551	-0.001984	
-0.029144	-0.021210	0.210116	-0.002899	
0.030365	0.019379	0.053559	-0.003510	
0.074006	0.024872	-0.023346	-0.013885	
0.083161	0.063325	-0.081635	0.002289	
0.104219	0.030365	-0.118868	-0.000153	
0.122225	-0.007477	-0.112764	-0.002289	
0.051728	-0.031892	-0.073701	-0.009308	
0.033723	-0.028534	-0.027313	0.000763	
0.044709	-0.006866	0.019379	0.008087	
0.044709	0.000153	0.059663	0.000763	
0.019989	-0.025177	-0.007477	-0.012970	
0.064546	-0.031281	0.028534	-0.006256	
-0.003204	-0.005646	0.154573	-0.007782	
-0.073091	0.027924	0.243076	-0.006256	
-0.034028	0.038911	0.222630	0.000458	
-0.018158	0.028229	0.243382	0.005035	
0.030670	0.033113	-0.152742	0.027313	
0.032197	0.046540	-0.486305	0.038301	
0.048676	0.069123	-0.212253	0.014496	
0.052033	0.093232	-0.070649	-0.002899	
0.123140	0.077058	-0.244297	-0.005646	
0.118563	0.026703	-0.173495	-0.018463	
0.052644	0.005035	0.204623	-0.013885	
-0.085298	-0.012970	0.219273	-0.026703	
-0.135653	-0.022125	0.395361	-0.018463	
0.017853	-0.039826	-0.101473	-0.026093	
-0.020905	-0.039521	-0.012054	-0.019379	
-0.196383	-0.040132	0.257725	-0.014496	
-0.181735	0.006561	0.192416	-0.008087	
-0.098116	0.048066	-0.090180	-0.013885	
-0.066377	0.051118	-0.201877	-0.006866	
-0.061799	0.060578	-0.025177	0.010834	
-0.024872	0.075532	-0.030060	0.001678	
-0.003510	0.038911	-0.046235	-0.001678	
-0.000153	-0.016022	0.144503	0.000763	
0.012054	-0.083467	0.410926	-0.002899	
0.020294	-0.129549	0.186007	-0.009613	
0.030670	-0.144808	0.121309	-0.002899	
0.037690	-0.107882	0.034944	-0.009918	
0.051118	-0.043794	0.065766	-0.011139	
0.039216	-0.012360	0.053559	-0.027618	
0.056306	0.033113	-0.009308	-0.018463	
0.084687	0.056611	-0.288548	-0.005035	
0.072480	0.053254	-0.613565	0.020905	
0.039216	0.027008	-0.435950	0.029144	
0.015717	0.032502	-0.058442	0.022125	
-0.004120	0.029144	0.032502	-0.001984	
-0.022430	0.068818	-0.068513	-0.017548	
-0.036164	0.100863	-0.156405	-0.019379	
-0.052339	0.157626	0.105745	-0.016632	
-0.107271	0.117647	0.366369	-0.023651	
-0.123140	-0.047456	0.404211	-0.022430	
-0.061494	-0.174106	0.131380	-0.012970	
-0.012054	-0.204928	0.144503	-0.014496	
0.005646	-0.128939	-0.047456	-0.005035	
0.029755	-0.038301	-0.033113	-0.012054	
0.029755	-0.011139	0.128328	-0.013275	
-0.025482	0.027924	0.088655	-0.009918	
-0.034944	0.034944	-0.001068	-0.009003	
-0.021820	0.062715	0.296178	-0.016632	
-0.003815	0.066072	0.171054	-0.015106	
0.002594	0.036164	-0.359961	-0.016632	
-0.005035	0.031892	-0.683146	0.001068	
-0.011139	0.034028	-0.654459	0.028229	
0.006561	0.017242	-0.246433	0.041047	
0.016937	0.010223	0.559854	0.012665	
0.037690	0.006561	0.677653	-0.028534	
0.066987	0.006561	-0.051728	-0.037690	
0.043794	0.006561	0.204928	-0.037690	
-0.000153	-0.003204	-0.003204	-0.030365	
-0.045625	-0.005035	-0.206454	-0.007782	
-0.087739	0.007782	0.038606	0.016937	
-0.077973	-0.001373	0.224155	-0.005035	
-0.018463	0.003815	0.149385	-0.011444	
0.004730	-0.007172	-0.037385	-0.002899	
0.038301	-0.009613	-0.056916	0.002594	
0.027924	-0.006866	-0.147554	-0.009308	
0.034333	-0.001068	-0.102999	-0.005951	
0.031281	-0.011749	-0.032502	-0.005035	
0.005035	-0.004120	0.068818	-0.012054	
0.011139	-0.008087	0.206759	-0.015717	
0.033723	0.006256	0.077058	-0.017548	
0.047151	0.016327	-0.011139	-0.010529	
0.051728	0.005951	-0.136263	0.003204	
0.085908	0.014191	-0.178073	0.018768	
0.080720	0.037385	0.007782	0.034333	
0.121309	0.042878	-0.004425	0.034944	
0.299230	0.024261	-0.078279	0.014191	
0.249790	0.019073	0.035554	0.002289	
-0.021210	0.008698	-0.173495	-0.007172	
-0.171359	-0.009308	0.217135	-0.017853	
-0.217441	-0.007477	0.148775	-0.026093	
-0.250706	0.019379	-0.315099	-0.010529	
-0.278477	-0.002289	-0.059663	-0.001984	
-0.190280	-0.025787	0.346228	0.019989	
-0.045625	-0.065461	0.162814	0.022430	
-0.167697	-0.066072	-0.259861	0.006561	
-0.159762	-0.030060	-0.345007	-0.013885	
-0.113070	0.005646	-0.116121	-0.016327	
-0.045625	0.042573	0.211947	-0.017853	
0.037995	0.054780	0.271458	-0.023651	
0.048676	0.024872	0.242771	-0.022125	
-0.017242	-0.005951	0.085908	-0.020599	
-0.116121	-0.010834	0.054780	-0.016327	
-0.179599	-0.015717	0.076753	-0.017242	
0.009003	0.023956	-0.019989	-0.010529	
0.140230	0.003815	-0.031587	-0.015106	
0.167392	-0.012970	0.004730	-0.009918	
0.173495	-0.037995	-0.033418	-0.015717	
0.181125	-0.072480	-0.017853	-0.005951	
0.159457	-0.088349	-0.013580	-0.017853	
0.148165	-0.039521	-0.074922	-0.003510	
0.141451	0.026093	-0.072175	-0.011139	
0.146639	0.065461	0.001984	-0.005951	
0.070954	0.034638	-0.078889	0.005951	
-0.003204	0.056306	-0.268711	0.018768	
-0.077668	0.051423	-0.308385	0.021210	
-0.160373	0.019989	-0.339208	0.013275	
-0.171969	-0.004120	0.203097	0.000763	
-0.089570	-0.046540	0.403601	-0.015106	
0.037080	-0.031281	0.214084	-0.002289	
0.121309	-0.050202	0.363928	0.008087	
0.176242	-0.072785	0.114290	0.005035	
0.097506	-0.014191	0.227512	-0.019073	
0.002289	0.059968	0.431067	-0.011139	
-0.043489	0.051423	0.429542	-0.015717	
0.009613	0.084077	0.218051	-0.011749	
-0.099642	0.141451	-0.123140	0.006256	
-0.225376	0.136873	-0.569314	0.016327	
-0.262302	0.066682	-0.639200	-0.003815	
-0.252537	0.016327	-0.241856	-0.005035	
-0.201877	-0.024261	-0.209811	-0.019684	
-0.115511	-0.076142	-0.370947	-0.016327	
-0.059968	-0.070039	0.208285	0.000153	
-0.023346	-0.055390	0.554055	-0.007782	
0.036469	-0.019989	0.042268	-0.008392	
0.096895	-0.009308	0.100863	-0.022736	
0.111544	-0.001068	-0.163424	-0.017548	
0.099337	0.004425	-0.294957	-0.016022	
0.110628	0.003815	-0.212253	-0.007782	
0.103304	-0.012360	-0.185702	-0.010529	
0.085298	-0.021515	-0.129549	-0.000153	
0.038606	-0.013885	0.293126	0.004120	
0.003204	0.005951	0.521706	0.009308	
-0.005341	0.018768	0.097811	-0.007782	
-0.044404	0.016022	0.071870	-0.014496	
-0.095369	0.013885	0.325170	-0.010223	
-0.097200	0.017242	0.143892	-0.008392	
-0.085298	0.023346	0.111238	-0.011749	
-0.050202	0.033418	0.055696	-0.016327	
-0.015411	0.038606	0.008087	-0.012054	
0.028229	0.026703	-0.084992	-0.011444	
0.092927	0.008698	-0.165561	-0.015411	
0.106050	0.005035	-0.068513	-0.006256	
0.071870	0.015106	0.106356	0.002289	
0.067292	0.040437	0.030060	-0.004425	
0.106966	0.026093	0.029144	-0.004120	
0.100557	0.000153	0.119478	-0.015717	
0.024261	-0.019073	0.290990	-0.003204	
-0.023956	-0.046235	0.403601	-0.006866	
0.052339	-0.051423	0.104830	0.000153	
0.037995	-0.022430	-0.212253	0.005035	
-0.109407	0.016632	-0.561685	0.009308	
-0.213473	0.033113	-0.757610	-0.003510	
-0.224155	0.044099	-0.501564	-0.012054	
-0.110018	0.064851	-0.050202	-0.015106	
0.014496	0.035859	-0.182956	-0.009003	
0.026093	0.030365	-0.161593	0.003815	
-0.004425	0.042268	-0.159457	0.008087	
-0.051118	0.013275	-0.196383	0.008087	
-0.063020	-0.061494	-0.086823	-0.003510	
-0.023651	-0.086213	0.619669	0.000763	
-0.000153	-0.138704	0.507973	-0.010223	
-0.003204	-0.110323	0.284886	-0.013275	
-0.063630	-0.050202	0.205234	-0.027313	
-0.081025	-0.014191	0.336156	-0.019379	
-0.005951	-0.015717	0.136263	-0.022430	
0.062409	0.000763	-0.069123	-0.015717	
0.085298	0.004425	-0.152742	-0.013885	
0.085908	0.028839	0.275120	-0.005035	
0.071259	0.036164	0.354773	-0.005951	
0.028229	0.016022	0.028839	-0.000763	
0.008392	0.002289	-0.090791	0.005035	
0.027313	-0.011139	-0.169223	-0.009613	
0.078584	-0.001373	-0.223240	-0.011444	
0.084382	0.001678	-0.165561	-0.008392	
0.073396	-0.003815	-0.034333	-0.000763	
0.042268	0.014801	-0.026093	-0.006866	
-0.009613	0.048982	0.062409	-0.005951	
-0.084992	0.052644	0.002594	-0.000763	
-0.064240	0.068208	-0.081635	-0.005646	
0.028534	0.044709	-0.014191	-0.009918	
0.060884	0.007782	0.045320	0.009918	
0.051118	0.001678	0.023346	0.000763	
0.058137	0.014801	0.200961	0.008698	
0.005646	0.000153	0.210116	-0.006866	
-0.047761	0.022430	-0.102388	-0.011749	
-0.030975	0.003204	-0.185702	-0.012360	
0.005646	-0.011444	-0.213168	-0.007172	
-0.003204	-0.029144	-0.103914	0.006561	
-0.061799	-0.009613	-0.038301	0.006561	
-0.124056	-0.001984	0.199130	-0.002899	
-0.072175	-0.008087	-0.081635	-0.005951	
-0.026398	-0.004425	-0.181125	-0.005646	
0.003204	-0.015411	0.380713	-0.012054	
-0.000153	-0.027008	0.251316	-0.002899	
-0.044099	-0.017853	-0.071870	0.010834	
-0.064546	0.032502	-0.359350	0.015106	
-0.030365	0.037385	-0.534524	0.005035	
-0.014801	0.030365	0.086213	-0.007172	
0.006256	0.013885	0.450904	-0.016022	
0.072785	0.004120	-0.054170	-0.014191	
0.091401	0.016022	-0.634928	-0.014191	
0.144503	0.072480	-0.014191	0.005951	
0.157321	0.040437	0.371252	0.004120	
0.055085	-0.025482	0.456092	-0.000763	
0.074311	-0.019684	0.435645	-0.007477	
0.022125	-0.004120	0.039521	-0.020599	
-0.068208	-0.042268	-0.149691	-0.010529	
-0.103304	-0.058442	-0.607767	-0.001984	
-0.101778	-0.020905	-0.457007	0.007172	
-0.118258	0.007172	0.222630	0.002899	
-0.127718	0.044709	0.560464	-0.005035	
-0.150606	0.065156	1.042039	-0.011749	
-0.161593	0.072785	0.580606	-0.006866	
-0.145113	0.030060	0.030670	-0.026398	
-0.078584	0.006256	-0.164645	-0.026093	
-0.045320	-0.039826	-0.226597	-0.017242	
-0.021210	-0.066682	-0.152437	0.008087	
-0.021210	-0.040132	-0.261997	-0.013275	
-0.000763	-0.017242	-0.353857	-0.028839	
0.022125	-0.041963	-0.197299	-0.021515	
0.121309	-0.028229	-0.061494	-0.013885	
0.209201	-0.027618	-0.016937	-0.010529	
0.184787	-0.013275	-0.027313	-0.011139	
0.074006	0.069123	-0.026093	0.000763	
-0.014191	0.128328	-0.054170	-0.007172	
-0.043489	0.110323	-0.135347	-0.001984	
-0.061189	0.072175	-0.128939	-0.002899	
-0.085298	0.030975	0.081025	-0.000153	
-0.103609	-0.032502	0.141146	-0.011444	
-0.071870	-0.073396	0.344397	-0.007172	
-0.053559	-0.115816	0.277256	-0.022125	
0.035249	-0.107882	0.157321	-0.017242	
0.164340	-0.027008	0.225376	-0.005951	
0.110628	0.091706	0.168307	-0.007477	
0.024567	0.057527	-0.284276	-0.015106	
-0.005951	-0.027924	-0.757915	-0.015106	
-0.023956	-0.060273	-0.622110	-0.011444	
-0.054475	-0.062409	-0.570230	0.014191	
-0.045320	-0.026093	-0.646524	0.033113	
-0.012054	-0.001984	0.261082	0.028229	
0.001984	0.001984	0.960860	0.005951	
0.002594	-0.031587	0.226597	-0.021515	
0.024872	0.002899	0.493629	-0.016632	
0.011749	0.059052	0.308385	-0.022430	
-0.039826	0.062715	0.189670	-0.019073	
-0.063630	0.040437	0.171664	-0.017853	
-0.048371	0.026398	0.027313	-0.010223	
-0.062409	0.021820	0.061494	-0.005035	
-0.052949	0.026093	0.029144	0.000153	
-0.037080	0.008087	0.024567	-0.009918	
0.045320	0.000153	-0.033418	-0.010529	
0.165256	0.008087	-0.016022	-0.009308	
0.190890	0.002289	0.088960	-0.006866	
0.134432	-0.001373	-0.057832	-0.005035	
0.062409	0.016632	-0.244907	-0.010223	
0.013275	0.044709	-0.113070	-0.005951	
-0.005341	0.066377	0.000458	0.002899	
-0.027618	0.057527	-0.280003	0.002899	
-0.075227	0.034028	-0.202487	-0.002899	
-0.117647	-0.004120	-0.205234	0.003815	
-0.188754	-0.048371	-0.060273	-0.001373	
-0.259556	-0.075227	0.224766	-0.004425	
-0.159457	-0.076142	0.157931	-0.003510	
-0.047761	-0.065766	0.111849	-0.005341	
0.034333	-0.046540	0.038606	-0.008392	
0.088960	-0.008087	-0.094454	0.000763	
0.120394	0.024567	-0.186923	0.005035	
0.142061	0.027924	-0.229954	0.015411	
0.152132	0.014496	-0.035554	0.019379	
0.126497	0.017853	0.224461	-0.003204	
0.090180	0.020294	0.016937	-0.017853	
0.042268	0.016022	-0.121004	-0.015717	
-0.005035	0.010223	-0.116121	-0.005035	
-0.045014	0.016937	-0.126497	-0.004120	
-0.092317	0.039216	0.200046	0.012360	
-0.098116	0.024261	0.440528	0.019989	
-0.092011	0.040742	0.192721	0.016632	
-0.136263	0.038911	0.067903	-0.003204	
-0.150301	-0.003815	0.092622	-0.001373	
-0.096590	-0.037690	0.180209	-0.009003	
-0.003510	-0.047761	0.200961	-0.010529	
0.036775	-0.048066	0.055390	-0.011444	
0.066072	-0.018463	0.109407	-0.009003	
0.079804	-0.005341	0.109102	-0.010529	
0.117037	0.027313	-0.124666	-0.000153	
0.107271	0.036164	-0.524452	0.005341	
0.078279	0.044709	-0.181125	0.010223	
0.048676	0.036164	0.071565	0.008698	
0.069428	0.002289	-0.095980	-0.003510	
0.088960	-0.019073	-0.062409	-0.009003	
-0.015106	-0.019073	0.131380	-0.011444	
-0.071259	-0.016937	0.402685	-0.011139	
-0.093843	-0.008392	0.225681	-0.014191	
-0.073396	-0.000153	0.186618	-0.015106	
-0.052033	-0.001678	0.066682	-0.013580	
-0.059663	0.011749	-0.011444	-0.008392	
-0.043794	0.023346	-0.157931	-0.011139	
-0.038301	0.047456	-0.200961	0.003204	
-0.080110	0.041047	-0.281835	-0.007172	
-0.122530	0.050508	-0.298009	-0.019073	
-0.132601	0.056306	-0.110628	-0.022736	
-0.120394	0.050202	-0.013885	-0.015717	
-0.057832	0.032807	-0.022430	-0.010223	
-0.004425	0.006256	-0.160678	0.000153	
0.068818	-0.048676	-0.358740	0.000763	
0.127108	-0.080110	-0.439612	-0.008087	
0.130159	-0.093537	0.051118	-0.005035	
0.067292	-0.072480	0.070649	-0.008392	
0.090180	-0.034944	0.259861	-0.009918	
0.170444	-0.003204	0.674296	-0.002289	
0.119173	0.001068	0.467383	-0.007477	
0.036469	-0.011444	0.455482	-0.012054	
0.000763	-0.012054	0.266575	-0.004425	
-0.039521	-0.027008	-0.017548	-0.017853	
-0.078279	-0.054475	-0.163730	-0.011749	
-0.069428	-0.077668	0.137178	-0.016632	
-0.089875	-0.048371	0.401464	-0.019073	
-0.113375	-0.002289	0.366674	-0.017242	
-0.079194	0.036164	0.197299	-0.010529	
-0.031892	0.044709	-0.103914	-0.009003	
-0.001984	0.049897	-0.309300	0.002289	
0.004730	0.025787	-0.536050	0.001068	
0.003815	0.028839	-0.455176	-0.004425	
0.050202	0.028229	-0.193942	-0.013885	
0.239414	0.021820	-0.305333	-0.009308	
0.290990	0.023041	-0.300450	-0.003510	
0.052339	0.025177	-0.359961	-0.017548	
-0.091401	0.025177	-0.435950	-0.016632	
-0.134432	0.017242	-0.258335	-0.005951	
-0.105440	0.053559	0.006256	0.021515	
-0.064546	0.038911	0.042268	0.041047	
-0.009003	-0.003815	0.365149	0.028229	
-0.030060	-0.001984	0.942855	-0.000153	
-0.073701	-0.025177	0.190890	-0.008392	
-0.051118	-0.034333	-0.189059	-0.017242	
-0.014801	-0.012054	-0.078889	0.005035	
-0.077668	0.017853	0.189059	0.012970	
-0.037995	0.037385	0.362097	0.006866	
-0.009003	0.060578	0.115206	-0.007172	
-0.051728	0.067597	0.108187	-0.011444	
-0.070039	0.054170	0.049287	-0.015717	
-0.068208	0.044099	0.172275	-0.016327	
-0.051118	0.065156	0.323339	-0.012054	
-0.017242	0.080720	0.208285	0.000153	
0.001068	0.045014	0.205234	0.002594	
0.024872	-0.028229	-0.076447	-0.003510	
0.024261	-0.097811	-0.428931	-0.007477	
0.005951	-0.107882	-0.318151	-0.012970	
0.045014	-0.089875	-0.205844	-0.011444	
0.080415	-0.157016	-0.135347	-0.020599	
0.057221	-0.123446	-0.058747	-0.016327	
0.010834	-0.077668	0.083161	-0.017853	
-0.016022	-0.055085	0.291905	-0.004120	
-0.039216	-0.026398	0.269321	-0.010529	
-0.053864	0.029144	0.074922	-0.017853	
-0.029449	0.056611	-0.200961	-0.012970	
0.009003	0.048371	-0.408179	-0.001373	
0.086823	0.034028	-0.323644	0.004425	
0.202182	0.022430	-0.425269	0.006866	
0.121004	0.027924	-0.317235	-0.003204	
0.021820	0.030975	-0.064240	-0.028229	
-0.009308	0.028839	0.272678	-0.019379	
-0.058442	0.021820	0.472878	-0.016327	
-0.073091	0.025177	0.325170	-0.019989	
-0.109102	0.009003	0.150606	-0.028839	
-0.079499	0.019989	-0.188144	-0.009003	
0.046540	0.022736	-0.392920	-0.010223	
0.043794	0.027924	-0.377356	0.010834	
-0.013885	0.033113	-0.224461	0.005341	
-0.095064	0.037995	0.137484	-0.007782	
-0.039216	0.056306	-0.043183	-0.025177	
0.009613	0.094759	0.352026	-0.023346	
-0.013885	0.104525	0.384985	-0.010529	
-0.057832	0.049897	0.102388	-0.005646	
-0.055696	-0.008392	0.092011	-0.002899	
-0.082551	-0.012054	0.182956	-0.007477	
-0.095980	0.023956	0.364843	-0.007172	
-0.043794	-0.009308	0.291600	-0.003510	
0.014801	-0.128023	-0.055696	0.006561	
0.059968	-0.204623	0.145723	-0.000153	
0.084992	-0.153048	0.229343	0.008087	
0.058442	-0.076142	0.393835	-0.016022	
0.058442	0.024567	0.032197	-0.022125	
0.031892	0.008392	-0.032197	-0.025787	
0.028229	0.002594	0.008392	-0.019073	
0.108492	0.004120	-0.128939	-0.019379	
0.111544	0.022430	-0.345312	-0.021515	
0.048676	0.019073	-0.450599	-0.029755	
-0.014801	0.010529	-0.381628	-0.020294	
-0.085603	0.029144	-0.437476	-0.013275	
-0.063020	0.059968	-0.011749	-0.004425	
-0.043794	0.062104	0.323339	-0.000763	
-0.029449	0.038911	0.074922	0.004425	
-0.034028	0.048676	-0.149080	0.017242	
-0.075837	0.048371	-0.238499	0.005035	
-0.095675	0.030670	-0.010834	0.003204	
-0.090486	-0.015717	0.073701	-0.023956	
-0.036469	-0.027924	0.615396	-0.019379	
0.033723	-0.033113	0.453040	-0.025787	
0.073091	-0.025177	-0.076447	-0.020599	
0.059358	-0.035249	-0.283055	-0.003510	
0.058137	-0.029144	-0.026398	0.008392	
0.060273	-0.010834	0.016327	0.006866	
0.034333	-0.004120	-0.403601	0.010223	
-0.039216	0.014191	-0.442969	0.003815	
-0.048371	0.042268	-0.381323	0.005341	
0.013885	0.048982	0.539407	0.008698	
-0.005646	0.044709	0.637980	-0.009308	
-0.098116	0.036469	0.107882	-0.009613	
-0.081330	0.024567	-0.205539	-0.021515	
-0.031892	0.019073	-0.070649	-0.020599	
0.027924	0.001678	-0.077058	-0.022736	
0.057832	-0.011444	-0.221409	-0.014496	
0.052949	-0.028534	-0.113985	0.000153	
0.004730	-0.037080	0.414283	0.011444	
-0.026398	-0.031281	0.681621	0.013885	
-0.006866	-0.009918	0.336156	0.002594	
-0.001678	0.040132	-0.102999	-0.013580	
0.000458	0.063325	-0.193332	-0.003510	
-0.020294	0.036469	-0.136263	-0.001373	
-0.030975	-0.004425	-0.143587	-0.001984	
-0.038301	-0.066682	-0.166476	-0.003510	
0.002289	-0.080415	-0.122530	-0.005341	
0.064240	-0.062409	-0.099031	0.001678	
0.105440	-0.015717	0.055390	0.006561	
0.105440	0.046235	0.075837	-0.000763	
0.065156	0.050508	-0.013885	-0.005035	
0.001068	0.021820	-0.093232	-0.000763	
-0.007782	-0.025787	0.034944	-0.004120	
-0.005035	-0.045320	0.339818	0.008698	
-0.083161	-0.071259	-0.000153	0.000763	
0.042268	-0.057832	-0.287023	0.001068	
0.041047	-0.012970	-0.337071	-0.001984	
-0.100557	0.005951	0.195773	-0.000763	
-0.197604	0.009308	0.234837	-0.006256	
-0.205539	0.048982	-0.042573	-0.006256	
-0.078584	0.084992	0.322728	0.001068	
0.016327	0.125277	0.384069	0.016937	
-0.011749	0.126497	0.103304	0.007172	
-0.087434	0.084382	-0.403601	-0.001373	
-0.106661	0.039826	-0.421607	0.000763	
-0.092317	0.000458	-0.141146	-0.006866	
-0.027618	-0.020294	-0.145418	-0.007477	
0.042268	-0.016327	-0.009003	-0.011749	
0.086823	-0.026093	0.235447	-0.010529	
0.020294	-0.039521	0.154268	-0.010529	
0.020294	-0.070344	-0.099337	-0.012054	
0.072175	-0.080415	-0.035554	-0.016022	
0.093232	-0.093843	-0.167087	-0.005951	
0.076753	-0.065461	-0.038606	-0.011749	
0.063020	-0.017853	-0.038606	-0.005951	
0.046540	-0.003815	-0.173190	-0.013580	
0.057221	0.014496	-0.080110	-0.007782	
0.048676	0.018158	0.131990	0.000763	
0.046845	0.011139	0.431678	-0.000763	
0.080415	0.025177	0.256504	-0.005646	
0.072480	0.042573	0.259861	-0.005341	
-0.007477	0.064546	0.174411	-0.001373	
-0.061799	0.048371	0.008087	0.000763	
-0.077973	0.029755	-0.185702	0.006561	
-0.069123	0.032502	0.147249	0.001678	
-0.037690	0.068208	0.211337	-0.010223	
-0.062409	0.064240	-0.277866	-0.011444	
-0.070039	0.049287	-0.192416	-0.001373	
-0.069123	0.009003	-0.007477	0.006561	
-0.070039	-0.032502	0.175937	0.010834	
-0.077058	-0.048676	0.254978	-0.009003	
-0.019073	-0.041352	-0.063020	-0.021515	
0.127413	-0.082856	-0.259556	-0.031587	
0.209201	-0.103304	-0.053559	-0.019684	
0.088960	-0.104830	0.286717	-0.022430	
0.029144	-0.035554	0.297704	-0.002899	
0.003204	0.014801	0.643778	0.002594	
-0.039826	0.023041	0.057221	-0.011749	
-0.136568	0.045014	-0.531472	-0.013580	
-0.096285	0.076753	-0.319066	0.009003	
-0.078279	0.102388	-0.330968	0.013885	
-0.089570	0.074922	-0.298924	-0.007782	
-0.102694	0.041963	-0.337377	-0.020599	
-0.091401	0.006256	0.063630	-0.027924	
-0.045930	-0.026398	0.168612	-0.023651	
0.019989	-0.075227	-0.018463	-0.028839	
0.112764	-0.089570	-0.067597	-0.018463	
0.102694	-0.069734	-0.130159	-0.014191	
0.052644	-0.000153	-0.161899	-0.006256	
0.037995	0.011749	-0.124056	-0.007782	
0.019073	0.020599	-0.020294	0.012360	
-0.002899	0.034944	-0.031587	0.013885	
0.001068	0.126802	0.129244	0.011444	
-0.006256	0.135347	0.568093	-0.014191	
-0.013275	-0.010834	0.202487	-0.028534	
-0.012054	-0.117037	0.036469	0.000153	
-0.038301	-0.131685	0.050202	0.008087	
-0.019379	-0.103304	0.198215	0.005341	
0.034944	-0.047456	0.451209	0.010834	
0.043183	0.007782	0.478371	0.010834	
0.015717	0.034028	0.031587	-0.013580	
-0.001984	0.046540	-0.046845	-0.009918	
-0.008087	0.060273	-0.149385	-0.017853	
0.001068	0.079194	-0.098421	-0.009003	
-0.003510	0.030365	0.055085	-0.021820	
0.008087	0.022125	0.246738	-0.001373	
-0.003815	0.007172	0.133821	0.006256	
0.013275	0.019379	-0.097200	0.011444	
-0.006256	0.030975	-0.294652	0.007782	
-0.011139	0.037080	-0.392004	0.000763	
0.003815	0.040132	-0.480202	-0.009918	
-0.019989	0.037385	-0.585488	-0.017853	
-0.068513	0.030365	-0.256809	-0.025177	
-0.077363	0.034028	-0.047456	-0.015106	
-0.057221	0.031281	-0.260166	-0.005035	
-0.049897	0.013275	-0.215304	-0.003510	
0.011139	-0.005646	0.092011	0.004120	
0.037995	-0.056306	0.392614	-0.019379	
-0.021210	-0.068513	0.226902	-0.026398	
-0.029755	-0.067292	0.258640	-0.042878	
0.064240	-0.053254	0.262913	-0.028534	
0.105135	-0.043183	0.170444	0.002899	
0.078584	-0.010834	-0.122835	0.028229	
0.059968	0.004425	-0.399939	0.023346	
0.034944	0.009003	-0.432288	0.016937	
-0.019989	-0.003510	-0.359655	0.002899	
-0.100252	0.012970	0.400549	0.002289	
-0.142672	0.062104	0.661784	0.008087	
-0.126192	0.058747	0.654764	0.006256	
-0.066072	0.004425	0.332494	-0.002899	
-0.023651	-0.038606	0.056306	-0.015717	
-0.005035	-0.049592	0.123751	-0.013275	
0.023651	-0.064546	0.124971	-0.007172	
0.030670	-0.051728	0.121309	0.004425	
-0.004425	-0.037995	0.028534	-0.017853	
-0.006256	0.000153	0.050813	-0.023651	
0.028839	0.028229	0.243076	-0.036469	
0.076142	0.031281	0.288854	-0.021515	
0.102388	0.025177	-0.048371	-0.016022	
0.124971	0.019379	-0.452430	0.005341	
0.142977	0.007782	-0.652933	0.020294	
0.086213	0.035249	-0.523232	0.022125	
-0.027618	0.085603	-0.451209	0.000763	
-0.074006	0.123446	-0.285802	-0.005646	
-0.107576	0.074922	0.210116	-0.011444	
-0.111238	-0.009613	0.048676	-0.012970	
-0.016937	-0.069734	0.099642	-0.011444	
0.167392	-0.087739	0.230869	-0.015717	
0.090180	-0.045625	0.390173	-0.017548	
-0.067903	0.005951	0.218661	-0.024567	
-0.136263	0.039216	0.193027	0.002899	
-0.151522	0.091096	-0.021515	0.005951	
-0.099031	0.129549	-0.023346	0.000763	
-0.070039	0.042573	0.067903	-0.015106	
-0.053559	-0.066682	-0.327611	-0.014496	
-0.114595	-0.103609	-0.532388	-0.018463	
-0.107271	-0.130770	-0.379797	-0.001984	
0.024872	-0.146334	0.022736	0.013885	
0.048066	-0.062715	0.281835	0.028534	
-0.012360	-0.007172	0.243382	0.015106	
-0.018463	0.009308	0.131075	-0.007782	
-0.054475	0.033418	0.261082	-0.016327	
-0.090180	0.059052	0.162814	-0.013885	
-0.043489	0.026398	0.218356	-0.011749	
0.041352	0.004730	0.064546	-0.020599	
0.086823	0.016937	-0.186923	-0.015717	
0.076142	0.014496	-0.319066	-0.012054	
0.075837	0.008698	-0.151217	-0.014496	
0.101168	0.017242	0.067292	-0.012360	
0.036469	0.018768	0.277256	-0.005646	
0.027008	0.012970	0.509193	0.001068	
0.108797	0.024567	-0.143892	0.011444	
0.110323	0.023041	-0.771343	0.012665	
0.091401	0.020294	-0.498512	0.028534	
0.037690	0.013885	0.411536	0.010223	
-0.037080	0.028839	0.637980	-0.005646	
-0.100557	0.038911	0.669108	-0.004425	
-0.107271	0.037995	0.227512	-0.009918	
-0.081635	0.024567	-0.231480	-0.019379	
-0.054170	-0.004120	-0.200351	-0.014191	
-0.034028	0.004120	-0.383459	-0.005646	
-0.016022	0.004730	-0.497292	-0.018463	
0.008392	-0.030060	-0.349279	-0.028534	
0.093232	-0.025177	0.173800	-0.016632	
0.191195	-0.001984	0.108187	-0.000153	
0.096285	0.008087	0.004730	-0.011749	
-0.016937	0.037385	0.399939	-0.009613	
-0.087739	0.028534	0.377966	-0.019989	
-0.089570	0.012054	0.047151	-0.019684	
-0.090486	-0.011139	-0.197604	-0.019073	
-0.068208	-0.014191	-0.109102	0.010834	
-0.005646	-0.012970	-0.059663	0.025482	
0.055390	-0.003510	-0.407874	0.011139	
0.049287	-0.003510	-0.127108	-0.005646	
-0.001068	0.005951	0.002899	-0.003510	
-0.000153	0.004120	-0.019989	-0.002899	
-0.005341	0.020905	0.354162	-0.005646	
-0.041047	0.026703	0.001068	-0.023651	
-0.087129	0.003815	-0.020599	-0.017853	
-0.119173	0.003204	0.240330	-0.001373	
-0.153963	0.002289	0.316319	-0.002289	
-0.134737	-0.007782	0.181125	-0.002899	
-0.064546	-0.050202	0.014496	-0.011444	
0.022736	-0.065461	-0.015717	-0.000763	
0.012360	-0.064240	-0.072480	-0.009308	
0.013885	-0.034028	-0.195773	-0.003204	
0.043183	-0.007477	0.055085	-0.003815	
0.062715	0.010834	0.200046	-0.000763	
0.070954	0.028839	0.146029	-0.012970	
0.076753	0.034638	-0.135042	-0.004425	
0.065156	0.032807	-0.319371	0.008087	
0.108797	0.017242	-0.217746	0.005035	
0.182345	0.014496	-0.168612	0.001068	
0.151522	0.025787	-0.270847	-0.002289	
0.074616	0.028839	0.160983	-0.011444	
-0.015411	0.030365	0.127718	-0.013275	
-0.064240	0.028839	-0.367285	-0.009613	
-0.074006	-0.003510	-0.481117	-0.007782	
-0.069123	-0.010834	0.142061	0.003204	
-0.038911	-0.022430	0.701457	-0.016632	
-0.017242	0.010529	0.685893	-0.019989	
-0.053559	0.026093	0.442664	-0.022125	
-0.048982	0.019989	-0.134737	-0.011139	
-0.031281	0.036164	-0.484169	-0.011139	
-0.027313	0.004425	-0.560159	0.012360	
-0.041963	-0.030060	0.323949	0.029755	
-0.057832	-0.032502	0.487221	0.008087	
-0.051423	-0.033113	0.292211	-0.022736	
-0.016022	-0.039216	0.085908	-0.023651	
0.000458	-0.029144	-0.172885	-0.029449	
-0.005341	0.025787	-0.369726	-0.017242	
-0.028229	0.071565	-0.434119	0.009003	
-0.055085	0.056611	-0.270847	0.008087	
-0.048371	0.026093	0.157931	-0.005646	
-0.062104	-0.033113	-0.073091	-0.010529	
-0.041352	-0.066072	-0.040437	0.007172	
-0.011139	-0.067597	0.449683	0.004425	
0.052339	-0.039826	0.175632	0.009003	
0.069123	-0.027008	-0.075837	-0.019073	
0.058747	0.014496	0.113985	-0.017242	
0.014496	0.042268	0.190280	-0.012970	
0.000458	0.059968	0.430457	-0.009003	
0.046540	0.069123	0.126192	-0.009003	
0.046540	0.068513	-0.017853	0.000153	
-0.048066	0.043183	-0.190890	-0.003204	
-0.038301	0.026703	-0.273899	-0.004425	
-0.040437	-0.000763	-0.004120	-0.005035	
-0.053864	-0.081635	-0.009308	-0.009918	
-0.016327	-0.128023	-0.442054	-0.001984	
0.032197	-0.094759	-0.246738	-0.003204	
0.032807	-0.037385	0.291600	-0.002899	
0.017242	-0.000763	0.593118	-0.011749	
0.045320	0.025177	0.038301	-0.009918	
0.056611	0.013885	-0.084687	-0.015106	
0.043183	0.024872	-0.272984	-0.017242	
0.013885	0.050202	-0.234226	-0.017853	
-0.011444	0.056306	-0.136873	-0.012360	
-0.038911	0.038301	-0.029144	0.005035	
-0.059663	0.030975	0.047761	0.014801	
-0.059968	0.012054	0.192721	-0.011444	
-0.015717	0.014496	0.165866	-0.010529	
0.013885	0.022125	0.017853	-0.002289	
0.027924	0.012970	0.028534	-0.002899	
0.038606	0.007172	0.034638	-0.008392	
0.072175	0.016327	0.073701	-0.012054	
0.089875	0.022125	0.056306	-0.016327	
0.078584	0.028534	0.054475	-0.014191	
-0.007477	0.037385	0.095064	-0.019379	
-0.103609	0.046845	0.008087	-0.034944	
-0.123140	0.048982	-0.140535	-0.013580	
-0.106050	0.049287	-0.227512	0.001678	
-0.079499	0.062715	-0.514381	0.029449	
-0.067597	0.014191	-0.503700	0.020905	
-0.013885	-0.027924	0.169528	0.006866	
0.180514	-0.076142	0.312047	-0.017853	
0.190585	-0.112764	0.327916	-0.023651	
-0.028229	-0.067292	0.315709	-0.025482	
-0.171969	0.070039	0.301976	-0.020599	
-0.091706	0.031892	0.048982	-0.025482	
-0.034333	-0.029755	-0.052949	-0.012054	
-0.032502	-0.040132	-0.126802	0.019989	
-0.044099	-0.041963	-0.315709	0.022736	
-0.080110	-0.027008	0.204013	0.023041	
-0.190890	-0.055390	0.160068	-0.004425	
-0.041352	-0.054170	-0.243992	-0.021515	
0.077973	-0.052339	-0.253757	-0.019073	
0.042268	-0.051423	-0.142672	-0.006256	
0.001984	-0.003815	0.338292	-0.005646	
0.001984	0.057527	0.329747	-0.002289	
0.012054	0.005951	0.010529	-0.006866	
-0.018158	0.009308	0.053559	-0.014496	
-0.020905	0.001984	-0.050813	-0.017853	
0.053864	-0.019684	0.065156	-0.006256	
0.112764	-0.038301	0.095675	-0.006256	
0.091401	-0.013275	0.072480	-0.009613	
0.056916	0.001068	-0.039216	-0.008392	
0.038911	0.008087	-0.176242	-0.004425	
0.030060	0.037995	-0.229954	0.006561	
0.000153	0.044709	-0.153658	0.006256	
-0.029755	0.038911	0.178073	0.008698	
-0.053559	0.030670	0.068513	0.003815	
-0.030365	0.018158	0.101168	-0.001678	
-0.001068	0.013885	0.047456	-0.011444	
0.006866	0.016632	0.017242	-0.004120	
0.014801	-0.015717	-0.017853	-0.008087	
0.054475	-0.012054	-0.126802	0.005951	
0.058747	0.007782	-0.175326	0.006561	
0.036469	-0.004120	-0.027618	-0.000763	
0.045320	0.009003	-0.021515	0.004120	
0.063020	0.034638	0.119783	0.013885	
0.035249	0.034028	0.142672	0.006256	
0.008392	0.040132	0.138094	-0.002289	
-0.010223	0.053254	0.129244	-0.008087	
0.001984	0.057527	0.031281	-0.010223	
-0.023956	0.103609	0.114290	-0.001678	
-0.048371	0.100252	0.001068	0.008392	
-0.023346	0.040132	0.157931	0.003815	
-0.026093	-0.051728	0.332494	-0.006866	
-0.056916	-0.111849	-0.384069	-0.005341	
-0.105440	-0.128939	-0.601969	-0.007172	
-0.157321	-0.110018	-0.322423	-0.004425	
-0.161899	-0.060273	-0.096285	0.002594	
-0.147554	-0.016022	0.295568	-0.003204	
-0.070344	0.044709	0.397192	-0.013885	
0.026703	0.136568	0.366674	-0.026093	
0.059968	0.142061	0.399328	-0.029449	
0.050202	0.071259	0.133821	-0.017853	
0.036775	-0.002289	-0.047761	-0.005646	
0.067292	-0.017853	-0.204928	0.011139	
0.036469	-0.042268	-0.186313	0.009003	
0.009003	-0.060578	-0.178683	-0.000153	
-0.008087	-0.038606	-0.500343	-0.007782	
-0.025482	-0.011444	-0.277256	-0.007782	
0.002289	-0.021515	-0.197604	0.000763	
0.006256	-0.041963	0.283666	-0.006256	
-0.006256	-0.021820	0.642557	-0.013275	
-0.012360	0.013885	0.036469	-0.022736	
0.025787	0.008698	-0.090486	-0.025482	
0.063935	-0.007172	-0.269627	-0.013580	
0.068208	0.003204	-0.343786	0.012665	
0.026398	-0.002899	-0.260777	0.001068	
-0.000763	0.021820	0.090180	0.000458	
-0.020905	0.060578	0.251621	-0.008392	
-0.019684	0.059052	0.236973	-0.011444	
-0.005951	0.016937	0.048676	-0.016327	
-0.011749	0.007782	0.194552	-0.012054	
-0.012360	-0.005035	0.327611	-0.010529	
0.015717	-0.012970	-0.014191	-0.005951	
0.063935	-0.000763	-0.074922	-0.004120	
0.067292	0.002594	-0.136873	0.000153	
-0.024872	0.009308	0.045625	0.001678	
-0.110323	-0.001984	0.341649	-0.003510	
-0.129549	-0.002289	0.587930	-0.010223	
-0.088655	-0.034333	0.214084	-0.020599	
-0.036164	-0.058442	0.102999	-0.016327	
-0.018158	-0.048676	-0.073701	0.003204	
-0.005646	-0.030060	-0.256199	0.011444	
0.019989	-0.003510	-0.442054	-0.000763	
0.051118	0.019073	-0.624247	-0.006866	
0.062715	0.004425	-0.439918	-0.013275	
0.052339	-0.003204	0.168002	-0.017242	
0.033723	-0.005035	0.185702	-0.025177	
0.051118	0.012970	-0.016327	-0.015106	
0.008087	0.005951	0.041352	-0.009918	
-0.025482	0.022125	-0.084687	-0.008087	
-0.065461	0.039216	-0.046235	-0.002899	
-0.108492	0.037995	0.081025	-0.001068	
-0.119783	0.022430	-0.115206	0.000153	
-0.099642	0.024567	-0.127108	-0.005035	
-0.017548	0.032197	-0.032197	-0.005646	
0.050813	0.027313	0.223545	-0.002899	
0.092011	0.026703	0.413672	-0.001373	
0.095369	-0.005341	0.258945	-0.004425	
0.077363	-0.009308	-0.136263	0.008698	
0.062409	-0.013580	-0.437781	-0.000153	
0.056916	-0.019073	-0.593729	0.009918	
0.056916	-0.033113	-0.124361	-0.004425	
0.085908	-0.027924	0.477455	-0.012970	
0.028229	0.010223	0.609293	-0.015717	
-0.091706	0.026703	0.228428	-0.013580	
-0.211337	0.054170	0.121004	-0.018158	
-0.192111	0.080720	0.219578	-0.019989	
-0.127718	0.034944	-0.021210	-0.011444	
-0.080110	-0.003510	-0.265965	-0.007172	
-0.018463	-0.024261	-0.019989	0.010529	
0.002289	-0.043489	0.431678	-0.003510	
0.016937	-0.019989	0.110018	-0.003510	
0.096895	0.008698	0.024261	-0.003204	
0.130770	0.008087	0.160373	0.006561	
0.122835	0.003815	-0.368811	-0.004425	
0.086213	-0.003510	-0.375219	0.007172	
0.002594	-0.008087	-0.115206	-0.008392	
-0.017242	-0.018158	0.141451	-0.014191	
0.036469	-0.074311	0.236362	-0.019684	
0.059358	-0.075227	-0.003510	-0.002899	
0.012054	-0.063935	-0.159762	0.005035	
-0.012054	-0.041963	-0.529030	0.014191	
-0.022125	0.031892	-0.300756	0.009003	
-0.045930	0.064546	0.107882	-0.010223	
-0.067903	0.057527	-0.073091	-0.009003	
-0.097506	0.031892	0.185702	-0.012054	
-0.087434	0.014496	0.247654	-0.013885	
-0.051728	-0.008392	0.142061	-0.027618	
-0.001984	-0.031587	0.226292	-0.023346	
0.035859	-0.008392	0.145723	-0.028534	
0.249790	0.042268	0.069428	-0.012970	
0.435645	0.018768	-0.133821	-0.005646	
0.185397	0.024567	-0.394445	0.004120	
-0.082551	0.005646	-0.356604	0.002594	
-0.176242	-0.033113	0.262608	0.014496	
-0.212253	-0.067903	0.018768	0.005951	
-0.214694	-0.073396	0.182956	-0.007782	
-0.203708	-0.074616	-0.071870	-0.022125	
-0.168612	-0.047761	0.010223	-0.019684	
-0.141146	-0.001373	0.191806	-0.012360	
-0.143282	0.041047	0.053559	-0.009003	
-0.125887	0.051423	0.025177	-0.000763	
-0.078584	0.096285	0.282750	-0.002899	
-0.017853	0.129854	0.194552	-0.005951	
0.018463	0.110933	0.136568	-0.012054	
0.045014	0.105440	0.167697	-0.007477	
0.043794	0.040437	0.065156	-0.007172	
0.046235	0.020294	-0.091706	0.010834	
0.042268	0.008698	-0.045930	0.016632	
0.052644	0.007172	-0.276340	0.005035	
0.056916	0.004120	-0.336766	-0.020599	
0.071870	0.000763	-0.187839	-0.032197	
0.137178	0.002594	-0.057832	-0.024261	
0.150301	0.000458	0.211032	-0.009003	
0.071870	-0.005035	0.123446	0.012970	
0.007172	-0.005646	-0.293431	0.022736	
-0.033418	-0.007172	-0.764019	0.023651	
-0.043794	-0.011139	-0.569314	0.019073	
-0.033418	-0.010223	0.047151	-0.005951	
-0.021820	-0.013580	0.128328	-0.026398	
-0.022125	-0.005035	0.380713	-0.015717	
-0.019073	-0.017242	0.370642	-0.004425	
0.016937	-0.030060	0.281223	-0.001678	
0.047761	-0.030060	0.215915	-0.004425	
0.045014	-0.015106	0.398413	-0.002289	
-0.003510	0.012360	0.295873	-0.008087	
-0.055696	0.022125	0.133821	-0.008392	
-0.091096	0.010529	0.127718	-0.012970	
-0.052339	0.005951	0.024567	-0.004425	
-0.004425	0.001068	-0.005646	-0.017548	
0.020294	0.012360	-0.023346	-0.016327	
0.022125	0.011139	-0.075837	-0.003204	
0.036775	-0.008087	-0.176242	-0.005035	
0.056916	0.010529	-0.216220	0.006866	
0.073091	0.020294	-0.092927	0.005951	
0.067292	0.046540	-0.072175	-0.009308	
0.018158	0.038911	-0.027618	-0.009308	
-0.047761	0.005646	-0.092622	-0.003204	
-0.078584	-0.028229	0.076447	-0.013580	
-0.044099	-0.053254	0.162814	-0.016022	
-0.037995	-0.094454	-0.070649	-0.015106	
-0.099031	-0.082856	-0.268101	-0.006256	
-0.132601	-0.037080	-0.377661	-0.013275	
-0.094454	0.019379	0.333714	-0.006866	
-0.048371	0.003204	-0.005951	-0.005035	
0.026703	-0.037385	-0.039216	0.012665	
0.062409	-0.046235	0.272678	0.012970	
0.061189	-0.024872	0.410926	-0.001984	
-0.033113	-0.041352	0.077058	-0.013580	
-0.084992	-0.052339	-0.219578	-0.013885	
-0.007782	-0.023041	-0.173190	-0.005951	
0.013275	0.012054	-0.190280	-0.005035	
0.027924	0.043489	-0.098726	-0.001373	
0.066682	0.055390	0.133821	-0.010223	
0.107882	0.042268	0.352636	-0.011749	
0.130159	-0.002289	0.035554	-0.022736	
0.111544	0.006256	-0.005646	-0.016327	
0.065766	0.030365	0.019989	-0.009308	
0.019073	0.040742	-0.068818	0.001678	
-0.039216	0.030670	-0.005341	0.004120	
-0.036469	0.039826	0.056611	0.011139	
-0.031281	0.032197	-0.052033	-0.000763	
-0.032502	0.048371	-0.133516	0.000153	
0.023956	0.048982	-0.176852	-0.002899	
0.149996	0.062104	0.060273	0.000763	
0.141451	0.146029	0.108187	-0.008392	
0.052949	0.241856	0.196078	-0.010223	
-0.073091	0.173190	0.138704	-0.002899	
-0.118258	0.026703	-0.115511	-0.004120	
-0.103304	-0.102388	0.028534	0.005951	
-0.123446	-0.196078	0.198520	-0.000763	
-0.166171	-0.221104	0.146334	-0.005341	
-0.181430	-0.197909	0.012970	-0.007172	
-0.141146	-0.144808	-0.236668	-0.008087	
-0.093537	-0.092011	-0.090791	-0.008087	
0.000153	-0.067292	-0.094759	0.014801	
-0.001373	-0.049592	-0.043489	0.008392	
