NO_OF_SAMPLES	4800
TOT_NO_OF_CHAN	4
FREQUENCY	960.000000
NO_OF_CALC_CHAN	0
TIME_STAMP	2020-02-08, 11:46:49	227887.40875920
FIRST_SAMPLE	1
DESCRIPTION	--
DATA_INCLUDED	Analog
CHANNEL_NAMES	Vastus Lateralis	Vastus Medialis	Tibialis Anterior	Lateral Gastroc
CHANNEL_GAIN	1	1	1	1
FP_LOCATION
FP_CAL
FP_GAIN
Vastus Lateralis	Vastus Medialis	Tibialis Anterior	Lateral Gastroc	
-0.010223	0.005951	0.011139	-0.012360	
-0.012360	0.001984	0.015411	-0.017242	
0.000458	0.004425	0.026093	-0.006866	
-0.008392	-0.005035	-0.006256	-0.011444	
-0.007477	-0.001373	-0.009613	-0.004425	
-0.005341	-0.002289	-0.001984	-0.010223	
-0.005341	0.000458	0.007172	-0.007782	
-0.005035	0.003815	0.024872	-0.005646	
-0.006256	0.002289	-0.036469	-0.005035	
-0.001984	0.001068	-0.028534	-0.009308	
-0.003204	0.002899	-0.005341	-0.011749	
-0.004425	0.005035	0.001984	-0.003510	
-0.009613	0.003815	0.001984	-0.011444	
-0.003204	0.007782	0.005341	-0.005646	
-0.005951	0.000153	-0.001068	-0.008392	
-0.000153	0.005646	0.008392	-0.003204	
-0.007477	0.000153	0.017242	-0.011749	
-0.001678	0.010223	0.032502	0.001068	
-0.001678	0.005646	0.022125	-0.005646	
-0.004425	0.005951	0.033113	-0.006256	
-0.006256	0.003815	0.010529	-0.002899	
0.003204	0.010529	0.021515	0.003815	
0.006256	0.006561	-0.002289	-0.002899	
0.007172	0.009308	-0.109407	-0.007782	
0.001984	0.007782	-0.052033	-0.004425	
0.001068	0.005951	-0.028229	0.002899	
0.002594	0.008087	-0.055390	-0.005035	
-0.009308	0.004120	-0.033418	-0.012360	
-0.015106	-0.001984	-0.031892	-0.008087	
-0.028229	-0.013275	0.153658	-0.008392	
-0.031892	-0.015411	-0.018158	-0.003510	
-0.025482	-0.015717	0.027924	-0.009003	
-0.016327	-0.009918	0.240635	-0.006256	
-0.013580	-0.005035	0.123751	-0.011444	
-0.013275	-0.007172	0.024261	-0.013275	
-0.017853	-0.005035	0.109713	-0.014191	
-0.006866	0.002594	0.119783	-0.005035	
-0.005646	0.001984	-0.024261	-0.010529	
-0.004425	0.003204	-0.089875	-0.009003	
-0.010223	0.002899	0.024872	0.004425	
-0.005035	0.005646	0.097506	0.010834	
-0.003815	0.007172	0.086823	0.002899	
-0.006866	0.009308	-0.104830	-0.002899	
-0.003204	0.014496	-0.232700	-0.008392	
-0.004425	0.011749	-0.032197	-0.014496	
-0.002899	0.014801	-0.044099	-0.005035	
-0.003510	0.005951	-0.004120	-0.008392	
0.004120	0.012054	0.027313	-0.010223	
-0.000763	0.005646	0.036164	-0.012970	
-0.003815	-0.000763	0.041657	-0.014191	
-0.001068	-0.005646	0.021210	-0.009308	
0.002594	-0.006256	0.011139	-0.005035	
-0.000153	-0.007782	0.070954	-0.012054	
0.006866	0.000458	0.037690	-0.006256	
-0.001068	-0.005646	-0.001373	-0.012360	
0.000458	-0.002289	0.002899	-0.012360	
-0.003204	-0.004425	-0.027924	-0.010223	
-0.005035	-0.005951	-0.033418	-0.004120	
-0.005951	0.000153	-0.011444	-0.002289	
-0.005646	0.000458	0.001984	-0.012054	
-0.005646	0.004425	0.009308	-0.015717	
-0.005341	0.008698	0.002899	-0.013580	
-0.007782	0.011749	-0.009613	-0.014191	
-0.007477	0.009003	-0.005341	-0.015106	
-0.000153	0.008392	-0.011749	-0.005646	
-0.003204	0.008698	-0.031587	-0.009003	
-0.011139	0.014801	-0.015411	-0.008087	
-0.015717	0.010529	0.031587	-0.006866	
-0.002289	0.023346	0.093232	-0.000153	
-0.016022	0.011749	0.123751	-0.016327	
-0.002289	0.021820	0.052949	0.000763	
-0.004425	0.018158	-0.121614	0.005341	
-0.003204	0.012360	-0.106661	0.007172	
0.004120	0.010834	-0.013885	0.002899	
0.001678	0.014496	-0.019684	-0.001984	
-0.003815	0.011749	0.005035	-0.009003	
-0.001678	0.014801	0.049287	-0.011139	
-0.000153	0.017242	0.049287	-0.009613	
-0.001068	0.012360	0.100252	-0.003510	
-0.002899	0.003204	0.001984	-0.009613	
-0.006256	0.000763	-0.007477	-0.019073	
-0.003815	-0.003204	-0.007172	-0.005951	
-0.010223	-0.012970	0.081941	-0.002899	
-0.003204	-0.003204	0.042878	0.010834	
-0.007477	-0.001678	0.089570	-0.003510	
-0.003815	-0.000763	0.033418	-0.004425	
-0.010834	-0.008392	-0.381628	-0.000153	
-0.009003	-0.005341	-0.364843	0.020905	
-0.013580	-0.012970	-0.171359	0.012054	
-0.005035	-0.008392	0.115511	0.013275	
-0.008392	-0.011139	0.356604	0.005035	
-0.005341	-0.006256	0.353857	0.006561	
-0.005951	-0.008392	0.153658	-0.004120	
-0.001678	-0.001373	0.049287	-0.005951	
-0.001068	0.005035	0.123751	-0.010529	
-0.003815	0.000153	0.085298	-0.016022	
0.002289	0.012970	0.031587	-0.014496	
-0.003510	0.016022	0.000153	-0.017853	
0.002594	0.022430	-0.020294	-0.004425	
-0.003204	0.010834	-0.084382	-0.015106	
0.005035	0.012970	-0.120699	-0.009613	
0.007172	0.008698	-0.143892	-0.016022	
0.009003	0.011749	-0.098116	-0.004425	
-0.003204	0.001984	0.188754	-0.013580	
-0.005035	-0.001068	0.249180	-0.011139	
-0.012360	-0.007172	0.036469	-0.013580	
-0.002289	0.004120	-0.077058	-0.005951	
-0.006256	-0.002289	0.041657	-0.003510	
-0.009613	-0.012054	-0.075837	-0.007782	
-0.011749	-0.005646	-0.045320	-0.005646	
-0.010223	-0.005341	-0.088044	-0.013885	
-0.010223	-0.009003	-0.056916	-0.012054	
-0.008392	-0.011444	-0.001678	-0.010529	
-0.003815	0.004120	0.001678	-0.003510	
-0.011139	0.000153	-0.011139	-0.014191	
-0.005341	0.009308	-0.013275	-0.012360	
-0.005951	0.008392	-0.013580	-0.010529	
0.008392	0.014496	0.004425	-0.008392	
0.001984	0.004120	0.023041	-0.019989	
0.002899	0.015106	0.015411	-0.020294	
-0.003204	0.011749	-0.010223	-0.019684	
-0.003815	0.020294	0.028839	-0.000763	
-0.012360	0.015106	0.077668	0.005951	
-0.015411	0.007782	-0.018463	0.000458	
-0.020905	-0.003815	-0.112764	-0.013580	
-0.010834	0.003204	-0.025482	-0.011444	
-0.006256	0.008392	-0.013580	-0.005341	
-0.007172	0.012970	-0.056306	-0.011139	
-0.007477	0.010223	-0.081025	-0.016022	
-0.012360	0.008087	-0.092317	-0.017548	
-0.010834	0.007172	0.004730	-0.006866	
-0.011444	0.005035	-0.027008	0.001068	
-0.002289	0.005951	0.114290	0.016937	
-0.005341	0.001678	0.004425	0.013275	
0.003204	0.004730	-0.116732	0.005035	
0.001068	-0.002899	-0.015411	-0.005341	
0.003815	-0.005035	0.075227	-0.001678	
0.004730	0.003815	0.163424	0.008698	
0.002899	0.004730	0.254978	0.006866	
0.001984	0.001678	0.231480	0.000153	
-0.003815	-0.001068	0.245823	0.000458	
-0.005646	-0.003510	0.293126	0.000458	
-0.002289	0.004425	0.073701	-0.001373	
-0.005035	-0.002899	-0.153353	-0.009308	
-0.001678	-0.003204	-0.190890	-0.015106	
0.001068	0.000763	-0.309300	-0.011444	
-0.009613	-0.004120	-0.228428	-0.009918	
-0.009613	-0.003815	-0.217441	-0.002899	
-0.017548	-0.009918	0.034944	-0.001373	
-0.014191	-0.001373	0.510109	-0.007172	
-0.005341	0.012054	0.179599	-0.016022	
-0.002289	0.012054	-0.209811	-0.007172	
-0.006866	0.009003	0.070954	-0.010223	
-0.007477	0.006866	0.131380	-0.006256	
-0.005646	0.005035	-0.008392	-0.014191	
-0.000153	0.004425	-0.000153	-0.006256	
-0.001678	0.006866	0.021515	-0.009918	
-0.003510	0.008392	0.014496	-0.004120	
-0.003204	0.004425	-0.014496	-0.014496	
0.004730	0.006256	-0.017853	-0.015106	
0.004120	0.009308	-0.023041	-0.010223	
-0.001984	0.006256	-0.019073	-0.007477	
-0.009003	0.007172	0.002594	-0.007782	
-0.002289	0.010529	0.028839	-0.010529	
-0.002899	0.008698	0.000763	-0.008392	
-0.007172	0.002289	-0.107882	-0.008392	
-0.007477	0.005646	-0.068513	-0.000763	
-0.011444	-0.003204	-0.020599	-0.002899	
0.001984	-0.001678	0.022736	0.002594	
-0.006256	-0.007172	-0.260166	-0.022125	
0.000458	0.005951	-0.291295	-0.012970	
-0.007782	0.003815	0.218051	-0.008392	
-0.002899	0.008087	0.489357	0.012054	
-0.000153	0.004120	0.207370	0.006561	
0.001678	0.006256	-0.337682	0.011139	
0.000153	0.005646	-0.250706	0.012054	
0.003204	-0.001068	0.207980	0.001678	
0.001984	0.001984	0.071565	-0.011749	
0.001984	0.003204	-0.132906	-0.026093	
0.002289	0.002289	-0.015411	-0.021515	
-0.008087	0.000458	0.151827	-0.016632	
-0.009308	-0.005341	0.131685	-0.003510	
-0.010223	-0.008087	0.145723	-0.001984	
-0.007782	-0.000763	0.210422	0.000763	
-0.016937	0.000763	0.056611	-0.010529	
-0.009918	0.004425	-0.102388	-0.007782	
-0.014191	-0.005035	-0.204318	-0.013580	
-0.005035	0.004425	-0.098726	0.002289	
-0.003510	0.010223	0.035554	0.003815	
0.000458	0.010834	-0.141146	-0.009918	
-0.002289	0.010834	-0.118258	-0.019989	
0.003204	0.019073	0.006561	-0.015717	
-0.001068	0.006256	0.229038	-0.004425	
-0.001068	0.002289	0.104830	0.007172	
0.001984	0.001678	-0.103914	-0.010223	
-0.001373	-0.005035	-0.001373	-0.030365	
-0.002289	-0.010834	-0.008087	-0.010529	
-0.015411	-0.011139	-0.044709	0.005951	
-0.015411	-0.014801	-0.044404	0.008698	
-0.021820	-0.017853	0.161593	-0.002899	
-0.018158	-0.006866	0.331578	-0.000763	
-0.020294	-0.013275	-0.009003	-0.012054	
-0.020905	-0.009003	-0.114290	-0.007172	
-0.016327	-0.004120	-0.026093	-0.013275	
-0.006866	0.001984	0.050813	-0.012970	
-0.008087	0.000153	-0.021515	-0.015106	
0.000153	0.010223	0.008087	-0.000763	
-0.003204	0.012360	0.052644	-0.003510	
-0.000153	0.016022	0.030975	0.001678	
0.001068	0.005035	0.117647	0.001678	
-0.000763	0.005035	0.020294	0.002899	
-0.005646	0.003815	-0.069734	-0.006256	
-0.000763	0.008087	-0.179294	-0.006866	
0.004120	0.008392	-0.187533	-0.001678	
0.000458	0.007172	-0.013885	-0.008087	
0.002289	0.010834	0.090791	-0.006866	
-0.003815	0.006256	0.073091	-0.008392	
0.003815	0.013275	-0.004425	-0.004425	
0.001068	0.015106	-0.007172	-0.012054	
0.002289	0.014191	0.025482	-0.009613	
-0.005951	0.008698	-0.001678	-0.009918	
-0.003510	0.006561	-0.049897	-0.011749	
-0.002289	0.012970	-0.017242	-0.011139	
0.001068	0.016327	0.058747	-0.004120	
-0.005951	0.007172	0.059358	-0.004425	
-0.006866	0.006256	-0.020599	-0.005035	
-0.002289	0.000153	0.026398	-0.003510	
-0.002899	0.000153	0.007172	0.002594	
-0.003815	0.004425	0.000458	-0.012054	
-0.003204	0.000153	-0.037385	-0.022736	
-0.003815	-0.006256	-0.029755	-0.022736	
-0.001984	0.002899	-0.135653	-0.022736	
-0.003510	0.002594	-0.200046	-0.012054	
-0.012360	-0.002899	-0.075837	0.002594	
-0.010223	-0.003510	0.265965	0.025177	
-0.016937	-0.012970	0.261082	0.007172	
-0.009613	-0.007172	-0.141756	0.005035	
-0.009308	-0.002899	0.160068	-0.009003	
-0.011444	0.001984	0.295873	-0.019989	
-0.009918	0.004425	-0.081635	-0.028839	
-0.009003	0.008698	-0.098116	-0.019073	
-0.011444	-0.002899	0.123446	-0.008087	
-0.010223	-0.001373	0.112459	-0.010529	
-0.007782	0.000458	0.045014	-0.007172	
-0.015106	-0.001373	-0.066987	-0.005646	
-0.014801	0.001678	-0.030365	-0.005035	
-0.014191	0.002594	-0.136873	0.008392	
-0.003815	0.007782	-0.236668	0.011139	
-0.007477	0.003815	0.104830	0.001068	
-0.000153	0.010223	0.149691	-0.002899	
-0.003510	0.010834	0.088044	-0.022125	
0.000458	0.014191	0.150911	-0.007172	
0.005035	0.009308	0.193332	-0.000763	
0.009613	0.010223	0.140535	-0.010529	
-0.000153	0.008087	-0.339208	-0.029755	
-0.000153	0.018768	-0.233921	-0.009918	
-0.006866	0.011749	-0.018158	0.008087	
-0.003815	0.010834	-0.032197	0.011444	
-0.009918	-0.000763	-0.029144	-0.003204	
-0.006256	0.004120	0.199740	0.001068	
-0.008392	-0.005035	0.116121	-0.005951	
-0.003815	0.004120	-0.213168	-0.002289	
-0.001068	0.000153	0.011139	-0.006256	
-0.002289	0.001678	0.154573	-0.019684	
0.003204	0.003815	0.095369	-0.009003	
-0.000763	-0.001068	0.055696	-0.009003	
0.004425	0.002899	0.060273	-0.012054	
-0.004120	0.000458	-0.048371	-0.019073	
0.004120	0.008392	-0.308385	-0.015106	
-0.005035	0.008698	-0.225376	-0.011444	
-0.003510	0.005951	0.120394	-0.003815	
-0.001984	-0.006256	0.333409	0.010834	
-0.008087	-0.009308	0.155489	0.003204	
-0.009613	-0.006256	0.063935	-0.015717	
-0.010834	-0.004120	-0.041963	-0.016327	
-0.014801	-0.002289	-0.205234	-0.002899	
-0.012054	-0.001678	-0.042573	-0.003204	
-0.015411	-0.006256	0.027008	-0.013580	
-0.015411	-0.008392	-0.148470	-0.008392	
-0.009003	-0.005951	-0.167697	-0.009308	
-0.007172	0.000458	0.009918	-0.011444	
-0.003204	0.005646	-0.094454	-0.009613	
-0.010223	0.000458	-0.130770	-0.007172	
-0.000153	0.007782	0.121920	0.007172	
-0.005951	-0.001068	0.285192	-0.007172	
-0.001984	0.006561	0.022430	-0.003204	
-0.010834	0.000763	-0.056001	0.005951	
-0.003204	0.008087	-0.004425	0.012970	
-0.005341	0.002899	0.077363	-0.005646	
-0.004425	0.006561	0.137789	-0.009308	
-0.005341	-0.000763	0.140230	-0.011749	
-0.006866	-0.005035	-0.017548	-0.012970	
-0.008087	-0.001373	-0.050202	-0.011139	
-0.001373	0.008392	0.143892	-0.012054	
-0.003204	0.008392	0.035554	-0.022430	
0.000763	0.009918	-0.094759	-0.026093	
0.010223	0.013885	-0.009613	-0.013275	
0.006561	0.015106	0.130465	0.000458	
-0.003204	0.011139	0.027313	-0.004425	
-0.001068	0.010529	-0.104219	-0.017853	
-0.005035	0.010529	-0.170138	-0.022125	
-0.010223	0.008087	0.000153	-0.010529	
-0.017242	0.002899	0.113985	0.000153	
-0.027924	-0.009613	-0.021820	-0.000763	
-0.013580	-0.009003	-0.136263	-0.002289	
-0.017242	-0.014191	-0.063020	-0.010223	
-0.010834	-0.010834	0.134127	-0.009308	
-0.013885	-0.009308	0.178378	-0.016327	
-0.009003	-0.001373	0.042268	-0.015411	
-0.015411	-0.010223	-0.107271	-0.011749	
-0.013275	-0.003510	-0.037995	0.005035	
-0.011749	-0.004425	-0.086213	-0.005035	
-0.007477	-0.001984	-0.205844	-0.008392	
-0.006866	0.000153	-0.013580	-0.006866	
-0.008392	0.001068	0.092927	-0.009613	
0.001984	0.009003	0.295262	-0.001984	
0.001984	0.004730	0.233006	-0.005646	
0.005951	0.006866	0.032197	0.000763	
-0.003815	0.004425	0.064851	-0.009918	
0.001068	0.008698	-0.028534	-0.007477	
0.004120	-0.003510	-0.019073	-0.005341	
0.007782	0.004120	0.024261	-0.001984	
-0.002899	0.002899	-0.004425	-0.018463	
0.006866	0.012054	-0.027008	-0.018463	
0.001068	0.007782	-0.251621	-0.016327	
-0.004425	0.010834	-0.099031	-0.007782	
-0.006866	0.007172	0.031281	-0.005646	
-0.005035	0.004730	-0.002289	0.019379	
-0.003510	0.004120	0.080110	0.032807	
-0.002289	0.000153	-0.082551	0.011139	
-0.007172	0.005646	-0.097200	-0.000763	
-0.013885	0.005646	0.346533	-0.004120	
-0.003204	0.005951	0.206759	0.001068	
-0.003204	-0.000763	-0.107271	-0.014496	
-0.000153	0.008698	-0.028534	-0.011139	
-0.005951	0.000458	-0.008087	-0.022736	
-0.002899	0.000458	-0.190890	-0.015106	
-0.012970	-0.010834	-0.192416	-0.013580	
-0.009613	-0.008392	0.261997	-0.007782	
-0.009308	-0.005341	0.510719	-0.024261	
-0.001678	-0.001068	0.041657	-0.022736	
-0.013275	-0.006866	-0.388037	-0.034333	
-0.012054	0.000153	-0.231785	-0.015411	
-0.011749	-0.003510	0.056611	0.000153	
-0.013275	-0.000153	-0.010223	0.008087	
-0.009003	0.006866	-0.152437	0.002899	
-0.001678	0.009003	0.197909	-0.012054	
0.003204	0.014496	0.215304	-0.011139	
0.002594	0.017242	0.093232	-0.012054	
0.002899	0.026093	0.091706	-0.010529	
-0.005035	0.021820	-0.043794	-0.005951	
-0.000763	0.017853	-0.096590	0.005951	
-0.001068	0.018463	0.058747	0.009003	
-0.006256	0.013275	-0.056001	0.002594	
-0.016022	0.005035	-0.230564	-0.017242	
-0.007477	0.004120	-0.231785	-0.019073	
-0.015106	-0.011444	0.057221	-0.019379	
-0.009613	-0.009918	0.309606	-0.004120	
-0.013580	-0.023651	0.110323	-0.002899	
-0.005951	-0.013580	-0.193942	0.014191	
-0.012054	-0.014191	-0.326695	0.018463	
-0.005951	-0.007477	0.188144	0.006866	
0.000153	-0.000153	0.484169	-0.020599	
0.004120	0.003204	-0.171359	-0.016022	
-0.002899	-0.000153	-0.032502	-0.000153	
-0.003204	-0.002289	0.012970	0.010223	
0.002899	0.005646	0.054475	0.005035	
-0.001068	0.007782	-0.018158	-0.010529	
0.002899	0.012665	-0.009918	-0.011139	
-0.005035	0.008392	-0.005951	-0.020599	
-0.000153	0.011139	-0.071870	-0.017853	
-0.001068	0.009003	-0.061494	-0.014191	
-0.001678	0.012360	-0.011139	-0.016327	
-0.003815	0.006866	0.241550	-0.031281	
0.000763	0.018158	0.099031	-0.015106	
-0.000763	0.010529	-0.149996	-0.005646	
-0.004120	0.007172	-0.208285	0.006256	
-0.009003	0.004425	-0.293126	0.003815	
-0.005951	0.001678	-0.060884	-0.000153	
-0.005341	0.000153	0.404516	0.003204	
-0.003510	0.001068	0.329747	-0.004425	
-0.007477	-0.005341	0.191195	-0.013580	
-0.008392	-0.001068	0.165561	-0.012970	
-0.005341	0.003815	-0.045625	-0.003204	
-0.004425	0.001678	-0.039216	-0.005951	
-0.001984	0.007782	-0.169833	-0.009918	
-0.009613	0.000153	-0.218662	-0.014496	
-0.005035	0.000763	-0.027008	-0.006256	
-0.009003	-0.001068	0.262913	-0.014191	
-0.005341	0.003204	0.130465	-0.008392	
-0.012054	-0.000763	-0.080720	-0.013275	
-0.002289	0.004120	-0.092317	-0.013275	
-0.008087	-0.001984	0.012665	-0.012970	
-0.003510	-0.000153	-0.013885	-0.007782	
-0.005646	0.001984	-0.021210	-0.008392	
-0.012970	0.003204	-0.035859	-0.008087	
-0.010834	-0.000763	-0.027313	-0.007477	
-0.008087	0.001984	-0.021515	-0.005951	
-0.012970	0.000458	-0.012360	0.002289	
-0.009613	0.004730	-0.008392	0.000763	
0.000153	0.006866	0.000458	0.001678	
-0.000153	0.006256	0.001984	-0.002899	
0.002899	0.008698	0.009918	-0.005646	
0.009003	0.012054	0.005035	-0.003510	
0.015717	0.016022	-0.005035	-0.000763	
-0.002289	0.010223	-0.014496	-0.008392	
-0.009613	0.016327	-0.007172	-0.003510	
-0.013580	0.004425	-0.036469	-0.012054	
-0.007477	0.005035	-0.052949	-0.004425	
-0.013275	-0.007782	-0.035554	0.013885	
-0.009918	-0.007172	-0.056001	0.028534	
-0.009613	-0.011444	-0.179904	0.005035	
-0.009613	-0.009308	-0.175021	-0.010223	
-0.009613	-0.001984	0.013275	-0.007782	
-0.010223	-0.006866	0.568398	-0.001984	
-0.008087	-0.000763	0.238194	-0.009918	
-0.000153	0.004730	0.131990	-0.015411	
-0.000153	0.005951	0.249790	-0.012970	
-0.009003	0.004120	0.073701	-0.019684	
-0.006256	0.008087	-0.073701	-0.019073	
-0.013275	0.001678	-0.066682	-0.017853	
-0.010223	0.001068	0.099642	-0.007477	
-0.014801	-0.001984	0.077668	-0.017853	
-0.003204	0.004120	-0.165256	-0.005951	
-0.008392	0.000763	-0.174106	-0.007172	
-0.007172	0.006256	-0.005951	-0.009308	
-0.009613	-0.005951	0.091706	-0.011139	
-0.010223	-0.005646	0.124361	-0.008392	
-0.005646	0.004730	-0.043489	-0.011749	
-0.009308	0.002289	-0.183566	-0.014191	
-0.001678	0.000763	-0.077058	-0.011444	
0.001068	-0.003510	0.001068	-0.006256	
0.003204	0.002899	-0.012970	-0.002899	
-0.000763	0.007782	-0.027618	-0.009003	
-0.000763	0.016632	-0.022125	-0.010529	
-0.001068	0.011749	-0.013275	-0.021515	
0.004730	0.018158	-0.004120	-0.021820	
0.000763	0.018768	0.030060	-0.017853	
-0.006256	0.020599	-0.029144	-0.004425	
-0.012970	0.013275	-0.124971	0.006866	
-0.005035	0.011139	-0.139009	0.006866	
-0.006866	-0.004120	-0.147554	-0.008392	
-0.003204	0.000458	0.066987	0.011444	
-0.007782	-0.011139	0.229038	0.012970	
-0.002899	-0.007172	-0.024261	-0.002899	
-0.013580	-0.008392	-0.076753	-0.012054	
-0.009613	-0.005646	0.362402	-0.001373	
-0.012970	-0.003815	0.232395	-0.002899	
-0.006256	0.000153	0.099337	-0.008087	
-0.004425	0.003815	0.123140	-0.005341	
-0.002289	0.008698	0.048371	-0.010529	
0.005951	0.006866	0.040437	-0.023956	
-0.002899	0.004425	-0.074311	-0.030060	
-0.001068	0.012054	-0.119478	-0.019989	
-0.004425	0.006561	-0.034638	-0.014191	
-0.006866	0.003204	0.117952	-0.016022	
-0.005646	0.003815	-0.111238	-0.005951	
0.006256	0.001678	-0.451209	0.005951	
0.002899	-0.003815	-0.058442	0.003815	
-0.000153	0.000458	0.159457	0.000153	
-0.004425	0.000458	0.263828	0.003815	
-0.011749	-0.009613	0.269321	0.003204	
-0.017853	-0.011139	-0.042268	0.001068	
-0.003510	0.001984	-0.179294	0.004120	
-0.003815	0.001678	-0.009003	-0.008087	
-0.004425	0.007782	0.077973	-0.016327	
-0.005951	0.010223	0.016632	-0.019379	
-0.000153	0.010834	-0.071870	-0.012054	
0.006256	0.009003	-0.083772	0.005951	
0.001984	0.006256	-0.049897	0.007172	
-0.002289	-0.000153	0.131380	-0.007782	
0.003204	-0.002899	0.117952	-0.012970	
0.004120	-0.001984	-0.022125	-0.005951	
-0.005951	-0.013580	0.021515	-0.004425	
-0.006866	-0.011444	-0.018158	-0.003204	
-0.017548	-0.011444	-0.135042	-0.011139	
-0.012360	-0.000763	-0.094759	-0.009918	
-0.016937	-0.005035	0.005341	-0.005341	
-0.017853	-0.004120	0.080720	0.001678	
-0.011749	-0.003510	0.234226	-0.009308	
-0.005951	0.006866	-0.053864	-0.009308	
-0.001678	0.008392	-0.196078	0.001068	
-0.004425	0.007172	-0.142366	0.006561	
-0.005951	0.011749	-0.056916	0.005035	
-0.006256	0.008392	-0.136568	-0.009918	
-0.001373	0.009308	0.125887	-0.010223	
-0.004425	0.001984	0.295262	-0.009308	
-0.001373	0.006256	0.344397	-0.009003	
-0.007782	-0.001678	0.045625	-0.014496	
-0.005646	0.000458	-0.087129	-0.011444	
-0.005646	-0.001678	-0.047456	-0.017548	
-0.001068	-0.001373	-0.079804	-0.016022	
-0.005951	-0.005646	-0.099031	-0.016022	
0.001678	0.000763	0.037385	-0.011444	
-0.002289	-0.001068	0.035554	-0.016022	
0.001984	0.006256	-0.058442	-0.013580	
-0.003510	0.004425	-0.042573	-0.021210	
-0.002289	0.004425	0.120089	-0.022125	
-0.001678	0.006561	0.093843	-0.019684	
-0.008087	0.003204	-0.070649	-0.022736	
-0.003510	0.010834	-0.103914	-0.002899	
-0.009308	0.003815	-0.069734	-0.001373	
-0.005341	0.006256	0.142672	-0.000763	
-0.008087	0.008698	0.102083	-0.011444	
0.002594	0.019989	-0.131075	-0.000763	
-0.002289	0.012360	-0.228733	-0.000763	
-0.001678	0.014496	-0.240940	0.008698	
-0.001373	0.019989	0.232090	-0.000763	
-0.005341	0.011139	0.241245	-0.007172	
-0.009613	0.003204	0.016632	-0.009918	
-0.006256	0.004730	0.114901	-0.002289	
-0.015411	-0.001068	0.128023	0.000458	
-0.016937	0.003815	0.081635	0.009918	
-0.017548	0.000153	0.017853	0.008087	
-0.015717	-0.002899	0.021210	0.005341	
-0.014801	0.001678	0.015411	-0.000763	
-0.010223	0.012054	-0.003204	-0.007172	
-0.009003	0.012665	-0.040437	-0.006256	
-0.001068	0.008698	0.050813	-0.011444	
0.005035	0.004730	0.099031	-0.012360	
-0.005341	-0.000763	0.006256	-0.021515	
0.001068	0.009308	0.004730	-0.022736	
-0.003815	0.009308	0.070039	-0.036164	
-0.009918	0.015106	-0.120699	-0.023651	
-0.009613	0.000763	-0.320592	0.002289	
-0.013580	-0.004425	-0.193637	0.016022	
-0.011749	-0.003510	-0.174716	0.010834	
-0.010834	0.002594	0.043183	0.010529	
-0.008087	-0.001373	-0.143587	-0.005646	
-0.002289	0.000458	0.117037	-0.002289	
-0.005951	-0.000763	0.525368	-0.001678	
-0.002899	-0.001678	0.067292	-0.018158	
-0.001984	0.002899	-0.029449	-0.017853	
-0.005951	-0.005646	-0.007172	-0.019073	
-0.001068	-0.003815	0.080720	-0.013275	
-0.008392	-0.014801	0.148470	-0.017548	
-0.005951	-0.009003	0.009308	-0.011444	
-0.001984	-0.005341	0.068818	-0.015106	
0.008698	0.005646	0.013885	-0.005035	
-0.005035	-0.003815	-0.187228	-0.019989	
0.004730	0.008698	-0.029449	-0.015106	
-0.004425	-0.001068	-0.024567	-0.017548	
0.001984	-0.003815	-0.149080	-0.012054	
-0.007477	-0.008392	-0.414283	-0.009918	
-0.005341	-0.000763	-0.110628	-0.000153	
-0.012360	-0.011444	0.266575	-0.003510	
-0.016022	-0.015106	0.215915	0.001678	
-0.016022	-0.015411	0.289464	0.000153	
-0.011749	-0.006256	0.107576	0.012054	
-0.006256	-0.003510	0.042268	0.020905	
-0.006256	-0.009613	0.034028	0.012970	
-0.003815	-0.002899	0.079499	0.010834	
-0.006256	-0.004425	0.008392	0.000458	
-0.001068	0.001678	-0.117342	-0.002289	
-0.001678	0.004425	-0.159457	-0.012360	
0.005035	0.016632	-0.035249	-0.007172	
0.004730	0.021820	0.038911	-0.012970	
0.009003	0.020599	0.035554	-0.010529	
0.003204	0.013885	-0.020294	-0.018463	
-0.000153	0.013885	-0.102388	-0.019073	
-0.003204	0.011749	-0.122530	-0.016327	
-0.013580	0.000458	-0.069123	-0.012970	
-0.012970	0.008392	0.208896	-0.002899	
-0.013580	0.006866	0.120394	-0.000763	
-0.013275	0.000153	0.058747	-0.005341	
-0.007782	-0.003510	-0.096285	-0.013885	
-0.006256	0.001678	-0.189975	-0.017853	
-0.004425	0.008698	-0.071870	-0.019989	
0.004120	0.014496	0.055390	-0.011444	
-0.007477	0.005035	0.198520	-0.016327	
0.001984	0.008087	0.014191	-0.012054	
-0.003204	0.002289	-0.070649	-0.005646	
0.004120	0.010223	0.012665	0.005035	
-0.006256	-0.002899	-0.112459	-0.007172	
0.000153	0.004425	-0.118868	0.010834	
-0.002289	0.001678	0.050508	0.005951	
0.000153	0.001678	0.044709	-0.002899	
-0.006866	0.000153	-0.027008	-0.005646	
-0.008392	0.000153	0.327611	-0.010223	
-0.011444	0.004120	0.099642	-0.015106	
-0.011139	0.007172	-0.041352	-0.017853	
-0.011444	0.005951	0.208896	-0.019684	
-0.003510	0.016022	0.236973	-0.016022	
-0.001068	0.019073	-0.057832	-0.026093	
-0.003204	0.013275	-0.071870	-0.020294	
-0.004120	0.011749	-0.248569	0.010223	
-0.012970	0.001984	-0.282445	0.011444	
-0.011139	0.001068	0.353857	0.006561	
-0.008087	-0.002899	0.197299	-0.013275	
-0.003815	0.002594	-0.398413	0.005341	
-0.011444	-0.006866	-0.506752	0.018768	
-0.003204	0.003815	-0.054475	0.006561	
-0.008087	-0.000153	0.435340	-0.009308	
-0.003815	0.002289	0.542459	-0.004425	
-0.012360	-0.001068	0.160983	-0.015106	
-0.008087	0.005646	-0.061494	-0.013580	
-0.010223	0.002289	-0.069734	-0.008087	
-0.008087	0.000763	0.034333	-0.005951	
-0.009308	0.000763	0.087739	-0.006866	
-0.009613	-0.003510	0.113680	-0.015106	
0.002594	0.000763	-0.191195	-0.017242	
0.008698	0.005035	-0.152437	-0.018463	
0.012054	0.012360	0.084687	-0.009918	
0.000763	-0.000763	-0.008392	-0.016327	
0.002899	0.006256	-0.142672	0.000763	
0.005646	0.002899	-0.170749	-0.004120	
0.001678	0.004425	-0.025482	-0.007477	
-0.016022	-0.019684	0.001068	-0.015106	
-0.014801	-0.023041	-0.121309	-0.004425	
-0.019684	-0.019684	0.049287	-0.003510	
-0.015717	-0.015106	-0.008392	-0.000153	
-0.017242	-0.014191	-0.147860	0.001068	
-0.014801	-0.002289	0.046235	0.002899	
-0.008087	-0.000763	0.310521	-0.002899	
-0.002289	0.006561	0.098116	-0.007782	
-0.001678	0.015717	-0.109407	-0.005035	
0.002289	0.013275	-0.029144	0.005951	
0.004730	0.014801	0.089265	0.010834	
0.004425	0.007782	0.059358	-0.007782	
0.006866	0.013885	-0.098116	-0.010223	
-0.003204	0.011139	0.136263	-0.013275	
0.004730	0.023956	0.302281	-0.007172	
-0.009003	0.008698	-0.055696	-0.017242	
-0.006256	0.010223	-0.088960	-0.015717	
-0.020294	-0.003204	0.027008	-0.027618	
-0.015411	0.004425	-0.104219	-0.021820	
-0.011139	0.004120	-0.015106	-0.014496	
-0.008087	0.008087	-0.075532	-0.012970	
-0.010223	-0.002289	-0.227512	-0.009308	
-0.005341	-0.002289	-0.057832	0.012665	
-0.004120	0.002594	0.097200	0.003815	
-0.000763	0.005951	0.048676	0.005035	
-0.001678	0.000458	-0.056916	0.010223	
-0.004425	0.002289	0.274815	0.003815	
-0.001984	0.003815	0.196689	-0.004425	
-0.003815	-0.001678	0.121004	-0.008392	
-0.000153	-0.000763	0.068818	0.001068	
-0.009308	-0.006866	-0.013275	-0.010223	
-0.002289	0.001678	-0.054170	-0.014496	
0.000458	0.001984	0.022125	-0.017853	
0.010529	0.010223	0.048676	-0.009003	
-0.000763	0.005646	0.060884	-0.014191	
0.006561	0.010834	0.001678	-0.005035	
0.000153	0.009003	-0.249790	-0.013275	
0.001984	0.015106	-0.228123	-0.013275	
0.000458	0.019989	0.085298	-0.012970	
-0.010223	0.012970	0.087129	-0.011444	
-0.013885	0.001984	-0.050508	-0.011749	
-0.001068	0.004425	-0.069734	-0.005035	
0.005951	0.011749	-0.009003	-0.009003	
0.012054	0.020294	-0.219883	-0.013275	
0.003815	0.013885	-0.178683	-0.009003	
-0.012360	0.012054	0.209201	-0.007782	
-0.016022	0.007172	0.248569	-0.009918	
-0.030975	-0.020905	0.211337	-0.012970	
-0.024872	-0.021515	-0.163119	0.003815	
-0.028839	-0.030060	-0.168612	-0.011444	
-0.016327	-0.014191	0.152742	-0.002899	
-0.015411	-0.015717	0.172275	-0.014191	
-0.004425	-0.001068	0.166476	-0.012054	
-0.003815	-0.003815	0.050202	-0.015106	
-0.001984	0.001678	0.008087	-0.005951	
-0.005951	0.002899	0.174716	-0.005646	
-0.005646	0.007172	0.038606	0.002289	
-0.005951	0.009003	-0.162509	0.007172	
0.000763	0.016327	-0.101168	0.008087	
-0.000153	0.011139	-0.127718	0.000153	
-0.002289	0.009308	0.007172	-0.012054	
-0.001678	0.006256	-0.042573	-0.017548	
0.000153	-0.004120	-0.161593	-0.022736	
0.002594	-0.001068	-0.143892	-0.011139	
-0.005341	-0.005341	0.001068	-0.003510	
-0.009003	-0.006256	0.145723	0.009308	
-0.006866	0.002289	0.139315	0.011139	
-0.002289	0.007172	0.097811	0.002289	
-0.002289	0.008392	-0.114595	-0.004425	
0.005951	0.014801	-0.285802	-0.004120	
0.006256	0.011749	0.365149	0.004425	
0.006866	0.011749	0.263523	0.009308	
-0.001068	0.011139	-0.040437	0.000458	
-0.000763	0.013885	-0.109102	-0.002899	
-0.008087	0.000458	0.036775	-0.016632	
-0.000153	0.005035	0.174106	-0.013885	
0.011139	0.011749	0.155794	-0.013275	
-0.003204	0.002594	0.034944	-0.016022	
-0.006866	-0.011749	-0.028229	-0.009918	
-0.007172	-0.015411	-0.012054	-0.005341	
-0.005646	-0.004120	-0.063020	-0.000153	
-0.022125	-0.014191	-0.132906	-0.008392	
-0.023651	-0.008087	0.006866	-0.005646	
-0.021210	-0.009918	-0.045625	-0.007477	
-0.009918	0.004730	-0.106661	-0.000763	
-0.014801	-0.002899	0.191195	-0.017242	
-0.013275	0.001678	0.021210	-0.022736	
-0.019073	-0.008392	-0.271152	-0.013885	
-0.007782	0.000153	-0.136873	-0.004425	
-0.016022	-0.001678	0.143587	-0.015106	
-0.010834	0.004120	0.332189	-0.011139	
-0.005035	0.012054	-0.261692	0.000763	
-0.005646	0.011749	-0.119173	0.002899	
-0.004425	0.010529	0.077363	-0.004425	
0.000153	0.012054	0.046235	-0.004120	
0.007172	0.015106	0.060273	-0.004120	
-0.003815	0.012054	-0.025787	-0.015106	
-0.005341	0.012970	-0.022125	-0.011444	
0.001984	0.004120	0.003204	-0.010529	
0.000458	0.010223	-0.070039	-0.008087	
0.001984	0.007782	-0.189975	-0.010223	
-0.002899	0.009003	-0.228123	-0.009308	
-0.005035	0.008698	0.057527	-0.003204	
-0.003815	0.011139	0.367590	-0.003204	
-0.007477	0.004120	0.218661	-0.015717	
-0.003204	0.004120	0.071565	-0.018158	
-0.017853	-0.012054	-0.017853	-0.028839	
-0.010834	-0.006256	0.016632	-0.010529	
-0.005646	-0.005646	0.068513	-0.003510	
-0.008392	-0.007172	-0.122225	-0.005646	
-0.003204	-0.009308	-0.063630	-0.014191	
0.001068	-0.003510	0.300450	-0.014496	
-0.001373	0.003204	0.060273	-0.016327	
-0.003815	-0.003204	-0.197909	-0.010223	
0.001068	-0.001068	-0.108492	-0.008087	
-0.011749	-0.010834	0.085298	-0.020599	
-0.008392	-0.002289	-0.025482	0.002289	
-0.011749	-0.011444	-0.035249	0.000458	
-0.009003	-0.010223	0.038911	0.004120	
-0.008087	-0.003510	0.145723	0.010223	
-0.003510	0.002594	0.216830	0.008698	
-0.006866	0.003204	0.021515	-0.002899	
-0.005951	0.012054	-0.035859	0.005341	
0.000153	0.003815	-0.187228	-0.005951	
0.008087	0.008698	-0.061494	-0.009918	
-0.000153	-0.000763	0.045014	-0.017242	
0.003815	-0.004120	0.065766	-0.006866	
-0.003510	0.005035	0.014801	-0.010223	
-0.005341	0.010834	-0.043489	-0.012970	
0.004425	0.026093	-0.023956	-0.006256	
0.002594	0.024567	-0.044404	-0.019379	
0.009918	0.028534	-0.271152	-0.016022	
-0.003204	0.014801	-0.306249	-0.009918	
-0.002899	0.010834	0.086823	0.013885	
-0.011749	-0.001984	0.340734	-0.000153	
-0.004425	-0.000153	0.355078	-0.005646	
-0.008087	-0.011139	0.085908	-0.020294	
-0.015411	-0.012054	-0.011444	-0.007782	
-0.016937	-0.005341	-0.060273	0.005035	
-0.002899	0.001678	0.077973	0.013275	
-0.009308	0.000763	0.056306	0.000763	
-0.009613	0.004425	-0.090486	0.000458	
-0.006866	0.005035	-0.170138	-0.003204	
-0.001984	0.010834	-0.004425	0.001678	
-0.004425	0.008392	0.114290	0.002594	
-0.003204	0.010834	0.102083	0.004120	
-0.001068	0.020294	-0.019989	-0.000763	
-0.002289	0.016632	-0.038301	-0.005035	
-0.000153	0.017242	0.013885	-0.009918	
-0.004425	0.008087	0.005341	-0.022125	
-0.007782	0.000458	-0.029755	-0.017548	
-0.013275	-0.004120	-0.071565	-0.021820	
0.000763	0.004730	-0.082551	-0.017853	
-0.001984	0.003815	-0.159152	-0.019684	
0.001068	0.002594	-0.116426	-0.008392	
0.000458	-0.005646	0.151522	0.006256	
-0.007782	-0.005646	-0.001678	0.018158	
-0.006866	0.002289	-0.182651	0.006561	
-0.005035	0.002594	0.012970	-0.005035	
-0.011139	-0.000763	0.197299	-0.011139	
-0.010834	-0.001984	0.203403	-0.013275	
-0.008087	-0.004120	0.233006	-0.014496	
-0.005951	-0.004120	0.208591	-0.016327	
-0.005035	-0.009918	-0.038301	-0.009003	
-0.011139	-0.014191	0.157321	-0.005646	
-0.000763	-0.007782	0.178378	-0.004425	
-0.005341	-0.011139	-0.199740	-0.013580	
-0.001984	-0.009918	-0.247654	-0.001678	
-0.005341	-0.017242	-0.218356	-0.007782	
-0.008392	-0.003510	-0.077973	-0.007782	
-0.017242	0.000153	0.201266	-0.014191	
-0.011749	0.006256	0.198520	-0.006256	
-0.023041	-0.001373	0.191806	-0.030060	
-0.007477	0.016327	-0.030365	-0.018463	
-0.013580	0.008392	-0.147860	-0.000763	
-0.013275	0.007782	-0.218051	0.020905	
-0.009003	0.013885	-0.066682	0.016022	
-0.003815	0.011749	0.026093	0.002289	
0.001984	0.023041	0.082551	-0.000153	
-0.004425	0.020905	-0.076142	-0.018463	
0.005951	0.023041	-0.070649	-0.009003	
-0.001984	0.019073	-0.106050	-0.010223	
0.001984	0.023956	-0.035554	-0.010529	
-0.000763	0.012970	0.133821	-0.026398	
0.009003	0.017853	0.166171	-0.015106	
-0.001373	0.009003	-0.053559	-0.017242	
-0.005035	0.004730	-0.007782	-0.015717	
-0.009613	-0.011749	0.291905	-0.016022	
-0.006256	-0.005951	-0.092927	-0.001678	
-0.016937	-0.012054	-0.314488	0.004120	
-0.021210	-0.007477	0.160983	0.008087	
-0.024872	-0.007782	0.343785	-0.011444	
-0.006256	0.000153	0.011139	-0.003204	
-0.007782	-0.002899	-0.124361	-0.006256	
-0.005341	-0.002899	0.003815	-0.007172	
-0.003510	-0.009308	0.016022	-0.010223	
-0.002899	0.000763	0.071565	-0.001373	
-0.001678	0.004730	0.034333	-0.004120	
-0.008087	-0.000763	-0.098421	-0.015106	
-0.001984	0.009308	-0.094454	-0.012970	
-0.005951	0.007172	0.010834	-0.016327	
-0.003510	0.006256	0.042573	-0.011139	
-0.009003	-0.007477	0.080110	-0.009918	
0.002289	0.004425	0.066682	-0.005951	
-0.004425	-0.001984	-0.031281	-0.012054	
0.005951	0.008698	-0.179294	-0.001678	
-0.001984	0.003815	0.018158	-0.001984	
0.001068	0.002594	0.021515	0.000153	
-0.003204	0.000153	-0.072785	-0.011749	
0.001068	0.000153	0.063630	-0.017853	
-0.000763	0.002289	-0.020599	-0.024261	
0.000763	0.004120	-0.442359	-0.020599	
-0.002289	-0.000153	-0.236668	0.005341	
-0.010223	-0.001068	0.218356	0.021515	
-0.007477	-0.003510	0.687419	0.005951	
-0.007782	-0.001373	-0.027924	-0.003510	
-0.002899	0.002289	-0.204928	0.000458	
-0.001984	-0.002289	0.184787	-0.003510	
0.000458	0.002289	0.097506	-0.000763	
-0.003815	-0.000763	0.030365	-0.008087	
-0.005646	0.002899	0.099642	-0.003204	
-0.007782	0.002289	-0.058137	0.002594	
-0.002899	-0.000153	-0.032197	0.000763	
0.001984	0.000458	0.147249	-0.003510	
0.001984	-0.001068	0.122225	-0.014191	
0.002899	-0.001678	-0.071870	-0.019989	
0.003204	0.000763	-0.106661	-0.011749	
0.002594	0.004730	0.046540	-0.008392	
0.002594	0.005951	-0.011139	0.000153	
-0.003204	0.008087	-0.043183	0.004425	
-0.006256	0.010223	-0.014191	-0.000763	
-0.003815	0.008698	-0.074616	-0.005035	
-0.009613	0.000458	-0.002899	-0.017548	
-0.000153	0.003204	0.006866	-0.025177	
-0.009918	-0.001373	-0.277256	-0.018463	
-0.006866	0.007172	-0.387121	-0.003510	
-0.013275	0.000153	0.188144	-0.005951	
-0.012054	0.004425	0.384375	0.003204	
-0.017548	0.002594	0.196689	-0.005646	
-0.016022	0.005951	-0.062715	0.001068	
-0.019684	-0.001984	-0.014496	0.003815	
-0.021820	-0.002899	0.154268	0.009003	
-0.019989	-0.010834	-0.019684	-0.005035	
-0.013275	0.002289	0.245518	0.000153	
-0.004425	0.005951	0.298924	-0.007172	
-0.002899	0.007172	-0.110933	-0.025177	
0.000153	0.014801	-0.319676	-0.023651	
-0.001068	0.016632	-0.435950	-0.016327	
-0.000763	0.022430	-0.225986	-0.004425	
-0.000763	0.012360	0.208285	0.006561	
0.006256	0.008087	0.225681	0.017242	
-0.001678	0.005646	-0.196994	0.002289	
-0.006256	0.006561	0.109713	-0.000763	
-0.016327	-0.010223	0.362097	-0.005951	
0.002899	0.004730	0.165866	0.001068	
0.000153	0.009918	-0.019684	0.003204	
-0.006256	0.006561	-0.329747	-0.009308	
-0.012054	0.003815	-0.463721	-0.009003	
-0.003510	0.000153	-0.141451	0.003204	
-0.005035	-0.001068	0.323339	-0.005035	
-0.005341	0.005646	0.304112	-0.011139	
-0.007477	0.004730	0.067597	-0.028839	
-0.001984	0.008087	0.178073	-0.037995	
-0.000153	0.012360	0.134127	-0.037385	
-0.008392	0.002289	0.026398	-0.021515	
-0.002899	-0.001984	-0.086823	0.016022	
0.003204	-0.009613	-0.211337	0.021210	
-0.002289	-0.006866	-0.149080	0.001678	
-0.013580	-0.003815	-0.140230	-0.001984	
-0.016022	-0.005035	0.042878	-0.005646	
-0.016327	-0.012360	0.135653	-0.013580	
-0.005341	-0.002899	0.088044	-0.014191	
-0.005035	-0.008392	0.183871	-0.019379	
-0.001984	0.003815	0.085298	-0.017242	
-0.005646	0.000763	0.155794	-0.019073	
0.001068	0.003815	0.179599	-0.006256	
-0.003815	0.001984	-0.078584	-0.001068	
-0.005035	0.004120	-0.245518	0.009308	
0.002289	0.010834	-0.253452	0.009003	
0.004730	0.017853	-0.136263	-0.009308	
0.005035	0.020905	-0.114290	-0.011444	
0.004730	0.019989	0.030060	-0.010223	
0.002289	0.018158	0.126192	-0.015717	
-0.002289	0.009308	0.072480	-0.018158	
-0.001373	0.006256	-0.159152	-0.007782	
-0.014801	-0.002289	0.117647	-0.010529	
-0.009308	0.005951	0.426185	-0.009308	
-0.015717	-0.001068	0.184482	-0.019684	
-0.006866	0.007782	0.052949	-0.014191	
-0.001068	0.011139	-0.025787	-0.008392	
0.007172	0.023346	-0.251621	0.001068	
-0.005341	0.017853	-0.100863	-0.006866	
-0.000763	0.020905	0.012360	-0.005035	
0.000153	0.014191	0.017242	-0.008392	
0.002594	0.008698	0.037080	-0.016632	
-0.002899	0.009003	-0.001068	-0.021210	
-0.001984	0.002289	-0.007477	-0.019379	
-0.001984	0.003815	-0.110323	-0.020294	
-0.006866	-0.005035	-0.330663	-0.011749	
-0.013580	-0.011139	-0.076447	0.025177	
-0.026398	-0.021515	0.417029	0.039521	
-0.021820	-0.012970	0.067597	0.022430	
-0.017548	-0.012054	-0.212558	0.000153	
-0.004120	0.001678	-0.066987	-0.002899	
-0.002289	-0.006256	-0.017242	-0.018463	
0.001068	0.002289	0.168307	-0.019684	
-0.003815	0.000458	0.321813	-0.030060	
-0.002289	0.004730	0.048371	-0.020599	
-0.010834	-0.005341	-0.287328	-0.007782	
-0.004425	-0.003510	-0.016327	0.020294	
-0.009613	-0.005951	0.254368	0.025482	
-0.005341	-0.003510	0.034333	0.010223	
-0.006256	-0.005035	-0.120394	-0.000763	
-0.005646	0.002899	-0.166476	0.004425	
-0.000763	0.009308	0.002289	0.000458	
-0.002899	0.004425	0.032197	-0.019073	
0.006256	0.012970	0.059052	-0.024261	
0.004425	0.009003	0.103609	-0.028534	
0.009003	0.010223	0.316319	-0.026703	
0.004425	0.007782	0.165866	-0.031892	
0.005035	0.008698	-0.426490	-0.023956	
-0.006256	0.000458	-0.196078	-0.006866	
-0.014191	0.003815	0.281835	0.002289	
-0.018463	-0.002899	0.095369	-0.013275	
-0.010223	0.003204	-0.037690	0.000763	
-0.014191	-0.005035	-0.171664	-0.003815	
-0.011139	-0.001678	-0.174716	-0.000153	
-0.016327	-0.006866	0.182651	0.007172	
-0.019073	-0.005035	0.285192	0.011444	
-0.006866	0.005035	0.105440	0.008698	
-0.010223	0.000458	0.009918	-0.007782	
-0.009308	-0.003510	0.107576	-0.016327	
-0.011444	-0.005035	0.085908	-0.019684	
-0.003204	0.000153	0.030670	-0.021515	
-0.002899	-0.002899	0.013885	-0.025482	
0.003815	0.003204	-0.208285	-0.018463	
0.004730	0.001678	-0.401770	-0.010529	
0.008698	0.000458	-0.414588	-0.001678	
0.004730	-0.001678	-0.021210	-0.014496	
-0.000153	0.004425	0.327611	-0.011444	
-0.010223	0.003815	0.174106	-0.000153	
-0.013580	0.001678	0.009918	0.011444	
-0.013885	0.000458	0.136263	0.006866	
-0.010223	0.005646	0.024872	-0.006256	
-0.009613	0.004120	0.105135	-0.012054	
-0.003510	0.004425	-0.023651	-0.007477	
0.002899	0.012970	-0.191501	0.003815	
0.000458	0.016022	-0.018463	-0.007477	
0.002594	0.017242	0.040132	-0.005646	
0.000458	0.016632	0.016937	-0.000153	
0.009613	0.020294	0.052949	0.008698	
-0.001068	0.018768	0.028534	-0.001984	
-0.004120	0.019073	-0.059663	-0.007477	
-0.007477	0.007782	-0.157016	-0.011139	
-0.001984	0.001984	-0.015411	-0.003510	
-0.005341	-0.006256	0.103914	-0.005035	
-0.005646	-0.005341	0.327611	-0.017853	
-0.016937	-0.007782	0.109102	-0.027313	
-0.014801	-0.001068	-0.144808	-0.016327	
-0.019073	-0.017242	-0.046845	-0.011749	
-0.022125	-0.020905	-0.271152	-0.008392	
-0.022430	-0.016937	-0.381628	-0.002289	
-0.011139	-0.005951	0.019073	0.019379	
-0.016327	-0.011139	0.332494	0.010529	
-0.012360	0.000763	0.251621	-0.006256	
-0.012054	0.001678	0.248875	-0.005646	
-0.012360	-0.008392	0.047761	-0.013275	
-0.003815	0.000153	-0.026398	-0.017242	
-0.005646	0.000153	0.027924	-0.027618	
0.006866	0.007782	-0.023956	-0.015106	
0.001678	0.006256	-0.251011	-0.019379	
0.007782	0.014496	-0.131685	-0.005951	
0.001984	0.010223	-0.026398	0.006866	
0.008698	0.017242	0.193942	0.009308	
0.000458	0.005951	0.329747	-0.011749	
0.005646	0.014801	-0.044709	-0.004120	
0.005646	0.005951	-0.173190	-0.006256	
0.002899	0.003204	-0.055390	0.000153	
-0.003204	0.000458	0.011139	-0.004120	
-0.002289	0.004425	0.186618	-0.008087	
0.001068	0.010834	0.107576	-0.010529	
-0.004425	0.008698	0.040132	-0.014191	
-0.006256	0.002899	-0.017548	0.000763	
-0.007172	-0.001373	-0.007172	0.009003	
0.000153	0.003204	-0.206454	0.004425	
-0.009308	-0.009918	-0.081635	-0.010223	
-0.005035	-0.005646	-0.072175	-0.007782	
-0.004425	0.000153	0.099337	-0.000763	
-0.011139	0.001678	0.087739	-0.001678	
-0.014801	-0.005035	-0.038301	-0.011749	
0.000763	0.002899	0.010223	-0.003510	
-0.005646	-0.001068	0.048982	-0.014496	
-0.005951	0.004120	0.009308	-0.015106	
-0.007782	-0.003204	-0.037690	-0.030365	
-0.005035	0.002289	-0.156405	-0.019073	
-0.009613	-0.005035	-0.157931	-0.001678	
0.002289	0.001984	0.061799	0.009918	
0.003815	0.006256	0.096285	-0.005646	
0.002289	0.006256	-0.026093	-0.007477	
0.002594	0.009308	0.234226	0.009003	
-0.005951	0.005646	0.063630	0.002289	
-0.003510	0.014191	0.033418	0.000458	
-0.007172	0.006561	0.195163	-0.008392	
-0.001984	0.016632	0.336156	-0.012970	
-0.006866	0.016022	0.037080	-0.019989	
-0.009003	0.007782	-0.318151	-0.015106	
-0.008392	0.003204	-0.341954	-0.013275	
-0.013275	-0.001984	-0.212558	-0.016632	
-0.024872	-0.012970	-0.036775	-0.005646	
-0.019989	-0.014191	0.032807	0.019379	
-0.016937	-0.011139	0.063020	0.013275	
-0.012970	0.002594	0.344091	-0.003510	
-0.007477	0.005035	0.313573	-0.016632	
0.000763	0.018158	-0.071565	-0.019073	
0.005035	0.021820	-0.092317	-0.019684	
0.002289	0.024872	0.030060	-0.014496	
0.009918	0.023956	0.008698	-0.019379	
-0.001678	0.019379	0.143892	-0.029755	
0.004730	0.020905	-0.032502	-0.019073	
-0.016937	-0.000153	-0.109407	-0.022736	
-0.009308	-0.003815	0.014191	-0.009918	
-0.016022	-0.011139	-0.185397	0.000153	
-0.014801	-0.003510	-0.123446	0.005341	
-0.009308	-0.003510	0.034638	0.005035	
-0.011139	0.000458	-0.208591	0.006256	
-0.009613	-0.002289	-0.169528	0.002289	
-0.010834	-0.001984	0.217441	0.010223	
-0.012360	0.000763	0.184176	-0.005035	
0.000153	0.010529	0.006866	-0.009308	
-0.007782	0.004120	0.119173	-0.013275	
-0.009308	0.000458	0.289159	-0.009003	
-0.011749	-0.007172	0.190890	-0.003510	
-0.012360	-0.011139	-0.012970	-0.010529	
-0.011139	-0.007782	-0.122530	-0.023651	
-0.011139	0.002289	-0.098116	-0.026093	
-0.008087	0.006561	-0.223240	-0.022125	
-0.004425	0.005646	-0.398413	-0.015106	
0.001068	0.012970	-0.212253	0.008087	
-0.005341	0.002594	0.075837	-0.004120	
0.004730	0.010529	0.164340	-0.001984	
-0.005951	0.001068	0.188754	-0.001678	
0.001678	0.005951	0.175021	-0.002289	
0.002899	0.002289	0.142672	-0.004120	
0.013275	0.008698	0.113985	0.000763	
0.013275	0.008698	0.054475	-0.015411	
0.014496	0.010529	0.047456	-0.018463	
0.013885	0.006866	0.075227	-0.032197	
0.004730	0.007782	0.088960	-0.031892	
-0.009613	0.002899	-0.016937	-0.022430	
-0.022430	-0.008392	-0.436561	-0.002899	
-0.030365	-0.016022	-0.552224	0.016327	
-0.025787	-0.022125	-0.099947	0.021515	
-0.011444	-0.017242	0.472878	0.028839	
-0.007782	-0.009613	0.405127	0.010223	
-0.008087	-0.000763	-0.355688	-0.001984	
-0.006256	-0.002289	-0.213778	-0.014191	
0.000153	0.008392	0.255283	-0.009003	
-0.011139	0.005035	0.180209	-0.017853	
-0.003204	0.012054	0.143892	-0.013580	
-0.007477	0.002594	0.071870	-0.012054	
-0.001984	0.008392	0.121309	-0.005341	
-0.001984	0.016022	0.153963	-0.013275	
-0.002289	0.012970	-0.176852	-0.014496	
-0.003204	0.013885	-0.185702	0.009003	
-0.002899	0.011139	-0.039826	0.018768	
-0.003815	0.007782	-0.079194	-0.001373	
-0.007172	-0.000763	-0.358130	-0.015106	
-0.005341	-0.001984	0.117952	-0.017853	
-0.007172	-0.009308	0.410926	-0.017853	
0.006561	0.000763	0.185702	-0.001373	
-0.003510	-0.003510	0.044404	-0.004425	
-0.003815	0.001068	-0.092622	-0.005035	
-0.009613	-0.002899	-0.102083	-0.008392	
-0.007172	-0.001373	0.148165	-0.000763	
-0.005341	-0.000153	0.251621	0.001068	
0.003204	0.008698	-0.056001	0.008392	
-0.001068	0.009918	-0.467383	0.000458	
0.003204	0.015106	-0.305028	0.002289	
-0.005646	0.006561	0.026398	0.002899	
-0.007782	0.010529	0.200351	0.000153	
-0.011139	-0.006866	0.179904	-0.005035	
-0.011139	-0.010223	0.056306	-0.003510	
-0.006256	-0.006256	0.089265	-0.016022	
-0.008392	-0.008392	0.068818	-0.027924	
-0.005951	-0.002899	0.055085	-0.012970	
-0.005341	0.002289	0.109102	0.007172	
-0.001678	0.011749	0.027924	0.000153	
-0.003815	0.011139	-0.033113	-0.029449	
-0.000153	0.013885	-0.074922	-0.020294	
-0.007477	0.006256	0.009003	-0.015106	
-0.003204	0.013275	-0.029144	-0.008392	
-0.000763	0.016632	-0.270237	-0.011444	
0.000458	0.017853	-0.191501	-0.012970	
0.009003	0.016327	-0.062104	-0.019379	
0.013275	0.020905	-0.074311	-0.021210	
0.000763	0.010223	0.199130	-0.021515	
-0.005035	0.009003	0.033113	-0.004120	
-0.013275	0.002289	-0.073701	0.008392	
-0.023956	-0.009613	0.258640	0.006866	
-0.030975	-0.022125	0.242771	-0.010529	
-0.035249	-0.030060	-0.070649	-0.021820	
-0.021820	-0.013885	-0.103914	-0.007172	
-0.023041	-0.014801	0.107576	0.005951	
-0.012054	-0.001068	0.111544	0.013885	
-0.006256	0.004730	-0.016327	0.006561	
0.003815	0.009003	-0.086213	0.006866	
0.000763	0.000153	-0.187228	-0.006866	
0.007782	0.005951	0.047456	0.005035	
-0.002899	-0.003815	0.102083	-0.002899	
-0.002899	0.001984	0.053864	-0.001678	
-0.006866	-0.003815	-0.075837	-0.016327	
-0.004425	-0.003204	0.003204	-0.024261	
-0.003510	-0.004120	0.075837	-0.029449	
0.001984	0.004120	-0.050202	-0.020599	
-0.002899	0.014801	0.050202	-0.015717	
-0.005035	0.008698	0.272984	-0.017242	
0.001068	0.004425	0.008392	-0.017242	
-0.000763	0.005951	-0.366980	0.002289	
-0.001984	0.004120	-0.217746	0.013885	
-0.000153	0.004730	0.213168	-0.009308	
0.005035	0.008698	-0.024567	-0.010529	
-0.005951	-0.005341	0.020599	-0.012970	
-0.001984	0.000763	0.352636	-0.011444	
-0.002289	0.003204	0.184176	-0.005951	
0.000153	0.012054	-0.019073	0.004120	
-0.009613	0.004425	-0.059968	-0.011749	
-0.003815	0.008087	-0.102083	-0.009918	
-0.015106	0.001068	-0.107271	-0.019989	
-0.008087	0.012054	-0.009003	-0.008392	
-0.010223	0.008392	0.113375	-0.001984	
-0.005646	0.010223	0.081635	0.000763	
-0.012970	-0.006256	-0.008087	-0.000153	
-0.013580	-0.005341	-0.073701	0.005951	
-0.012054	-0.007172	-0.199740	0.001678	
-0.011749	-0.007782	-0.097811	0.002899	
0.000153	0.000458	-0.023346	0.004425	
-0.001984	-0.004425	-0.096285	-0.005951	
0.005646	0.005035	0.184176	-0.014496	
0.003815	0.000458	0.193027	-0.027618	
0.016327	0.014496	-0.183871	-0.012054	
0.006256	0.007172	-0.162814	-0.011749	
0.014801	0.020599	0.136263	0.009308	
0.011749	0.018768	0.027313	0.000763	
0.016327	0.020905	0.251316	-0.000763	
0.004120	0.012360	0.129244	-0.009308	
-0.003204	0.008087	0.006256	-0.019989	
-0.017853	0.004120	-0.104525	-0.033418	
-0.025482	0.002594	-0.038301	-0.023651	
-0.032197	-0.005035	0.136263	0.000153	
-0.041963	-0.017242	0.152437	0.012665	
-0.037690	-0.012970	-0.012360	0.013275	
-0.026398	-0.010834	-0.265659	0.009308	
-0.012360	0.004425	-0.064851	0.015106	
-0.011139	0.004425	-0.205844	-0.002899	
-0.009613	0.004425	-0.052949	-0.007172	
-0.012054	-0.004120	0.305028	-0.020599	
-0.001984	-0.003510	0.108797	-0.008087	
0.004120	-0.002289	-0.153048	-0.000763	
0.000763	0.004120	0.090791	0.000153	
-0.002899	0.000153	0.261387	-0.007782	
0.000763	0.004425	0.196689	-0.006866	
-0.005035	0.004425	0.043489	-0.017548	
-0.004425	0.004120	-0.010834	-0.016022	
-0.004425	0.002289	-0.086823	-0.026703	
0.004730	0.007782	-0.081941	-0.028839	
0.006561	0.002899	0.130465	-0.019379	
0.004120	0.003815	-0.031587	-0.016632	
0.002594	0.003204	-0.409400	-0.017853	
-0.001373	0.000153	-0.500343	-0.013580	
0.001678	0.008392	-0.123446	0.017548	
-0.005951	0.003204	0.366980	0.014496	
-0.006256	0.005646	0.445106	0.004120	
-0.011444	0.008087	0.133516	0.008392	
-0.005646	0.011139	-0.088960	0.009003	
-0.005035	0.005951	0.021210	-0.005951	
0.001068	0.007172	0.045320	-0.011749	
0.006256	0.013275	0.067597	-0.018463	
0.002594	0.008698	0.207370	-0.019684	
-0.001373	0.004425	0.082551	-0.010529	
0.000458	0.000763	-0.009613	-0.000763	
-0.003815	-0.003204	-0.073701	-0.007172	
-0.001984	0.006256	-0.142366	-0.000153	
-0.009003	-0.002289	-0.087739	0.002899	
-0.007782	-0.003510	-0.018463	0.005951	
-0.001068	0.003204	-0.084992	0.002289	
-0.005341	0.004425	-0.073701	-0.010223	
-0.007477	0.009308	0.037080	-0.010529	
-0.010223	0.005035	-0.023346	-0.010223	
-0.004425	0.014801	-0.144808	-0.009613	
-0.007782	0.014801	-0.009613	-0.016022	
-0.003204	0.012054	0.206759	-0.020599	
-0.002899	0.014191	-0.163730	-0.024261	
0.005035	0.014496	-0.588235	0.002289	
-0.001068	0.001984	-0.172885	0.012665	
-0.000153	0.003815	0.752728	0.009003	
-0.005035	0.001678	0.388647	-0.003204	
-0.007477	0.001678	-0.299230	-0.004425	
-0.008392	0.002289	0.040437	0.001068	
-0.003815	0.000153	0.134127	0.001068	
-0.013275	-0.010834	0.108187	-0.008392	
-0.015717	-0.019073	0.085603	-0.010223	
-0.015106	-0.012970	0.066682	-0.005035	
-0.021820	-0.010834	0.024872	-0.013885	
-0.023041	-0.007477	0.015411	-0.013885	
-0.022430	-0.013275	-0.003815	-0.015106	
-0.009003	-0.003510	0.000153	-0.009308	
-0.011444	-0.008392	0.004120	-0.018463	
-0.003815	0.002289	-0.009003	-0.015717	
-0.012970	0.000153	-0.030365	-0.024261	
-0.004425	0.010529	0.019989	-0.017242	
-0.004425	-0.001984	0.030670	-0.026703	
0.001984	0.000153	-0.070039	-0.023651	
-0.008087	-0.001984	-0.056916	-0.016327	
-0.001678	0.004425	0.030365	-0.004120	
0.005646	0.010834	0.062409	-0.007172	
0.004730	0.007782	0.093843	-0.006256	
0.005951	0.010223	-0.073091	0.010529	
0.003204	0.002899	-0.037385	0.018463	
0.004730	0.005951	-0.000763	0.019379	
0.008087	0.005035	-0.054170	0.002899	
0.009613	0.013275	-0.110933	0.002289	
0.004425	0.013885	0.045014	-0.003510	
0.004730	0.016022	0.184482	-0.007477	
-0.003204	0.012360	-0.104830	-0.023651	
-0.005341	0.019379	-0.350805	-0.013885	
-0.013275	0.020294	-0.171054	-0.008392	
-0.013885	0.009003	0.100252	-0.002289	
-0.021210	-0.008087	0.314488	0.002594	
-0.019989	-0.006256	0.222630	0.008087	
-0.020905	0.001984	-0.044709	-0.002899	
-0.011749	0.007172	0.045014	0.002899	
-0.006256	0.003815	0.061189	-0.004425	
-0.001373	0.005646	0.065156	-0.012054	
-0.009308	0.000763	0.053254	-0.017853	
-0.012970	-0.003510	0.045625	-0.018463	
-0.005951	-0.001373	-0.005035	-0.012054	
-0.004425	-0.003204	-0.031587	-0.019684	
-0.008087	-0.007782	0.002899	-0.024567	
-0.021210	-0.025787	-0.047761	-0.033723	
-0.016022	-0.020905	-0.058137	-0.026398	
-0.012360	-0.013580	0.055696	-0.028534	
-0.008392	-0.000763	-0.116121	-0.012054	
-0.007477	0.002289	0.045625	0.012665	
0.002594	0.009918	0.126192	0.024567	
-0.005035	0.007172	-0.184176	-0.003815	
-0.000153	0.005951	0.035554	0.002899	
-0.006256	-0.003204	-0.223545	0.007172	
-0.007782	0.000153	0.111238	0.007172	
-0.005035	-0.001984	0.301976	0.001678	
-0.001678	-0.002289	-0.175632	-0.001373	
0.001068	0.004120	0.079194	-0.010223	
0.000153	0.006866	0.149996	-0.022125	
-0.000153	0.003815	0.040132	-0.020294	
-0.003815	-0.003510	-0.015717	-0.014191	
-0.002289	0.002899	-0.054780	0.002899	
-0.009613	-0.005646	-0.097811	0.005035	
-0.006256	0.002899	-0.007172	0.006561	
-0.010223	-0.003204	0.070039	-0.016327	
-0.009308	-0.002289	0.021210	-0.020599	
-0.011749	0.000153	-0.046845	-0.018463	
-0.000153	0.014496	0.083467	-0.009003	
-0.000763	0.006866	0.208285	-0.009918	
0.000153	0.007782	0.040742	-0.011749	
-0.000763	0.004120	-0.218051	-0.009308	
0.001984	0.004425	-0.312963	0.003815	
0.003204	0.007782	-0.012054	-0.003204	
-0.000763	0.009308	0.269321	-0.012054	
-0.005646	0.004425	0.184176	-0.017242	
-0.002899	0.007172	0.063020	-0.005951	
-0.000763	0.011749	-0.056306	-0.001373	
-0.001068	0.009003	-0.070649	-0.010223	
-0.001068	0.018768	-0.159762	-0.017242	
-0.003510	0.023041	-0.428626	-0.013580	
-0.004425	0.024872	-0.193027	-0.005035	
-0.003815	0.014496	0.218661	0.003204	
-0.001068	0.008392	0.402380	0.007172	
-0.008087	0.004425	0.265659	-0.002899	
-0.007477	0.009308	-0.003510	-0.007477	
-0.015106	-0.001068	-0.052644	-0.006256	
-0.001068	-0.003204	-0.007172	0.007782	
-0.002289	-0.015411	-0.015717	0.000763	
-0.003510	-0.007172	0.092622	0.005951	
-0.005646	-0.002899	-0.036164	0.003204	
-0.009613	-0.003815	0.064546	-0.002289	
-0.002289	0.005035	0.136568	-0.001373	
-0.008392	-0.001068	0.075837	-0.017242	
-0.000153	0.008698	-0.078584	-0.019073	
-0.009003	0.003204	-0.084382	-0.027618	
-0.005035	0.010529	0.003204	-0.012360	
-0.003510	0.005035	0.006256	-0.009918	
-0.003815	0.006866	-0.010834	-0.007782	
-0.008087	0.004120	-0.052644	-0.004425	
0.002594	0.005951	-0.150606	0.002594	
-0.003204	-0.003204	-0.046540	-0.000153	
-0.000763	0.001678	-0.004120	0.002594	
-0.001373	0.001678	-0.045320	-0.008392	
0.003815	0.011749	0.050813	-0.005035	
-0.000763	0.012054	0.037690	-0.011139	
-0.009003	0.014496	-0.097200	-0.023346	
-0.010223	0.020294	-0.163119	-0.017853	
-0.013885	0.014801	-0.110323	-0.019989	
-0.014191	0.007782	0.204623	-0.015717	
-0.015411	0.006256	0.359045	-0.016327	
-0.008087	0.011139	-0.037385	-0.020294	
-0.005951	0.000763	-0.038606	-0.011444	
-0.003815	0.004120	0.020294	0.008087	
-0.012054	-0.002289	0.019989	-0.008392	
0.001068	0.004425	0.163730	-0.009918	
-0.010834	-0.003815	0.071870	-0.008392	
-0.006866	-0.004425	-0.120394	0.002899	
-0.008087	-0.007172	0.060884	0.008087	
-0.007477	-0.001068	0.263218	0.008392	
-0.005646	-0.003204	-0.042573	0.001068	
0.002289	0.001984	0.103304	0.000153	
0.000458	0.004120	0.175021	-0.014496	
0.000153	0.008392	-0.050508	-0.019989	
-0.001678	0.005035	-0.403296	-0.028534	
0.000458	0.011749	-0.386206	-0.019379	
-0.005035	0.009003	-0.215304	0.003204	
-0.009613	0.007172	0.051728	0.018768	
-0.008087	0.003815	0.392920	0.015106	
-0.010223	-0.005951	0.276646	0.013885	
-0.005951	-0.007172	0.172885	0.011444	
-0.012054	-0.011749	-0.190890	0.006561	
-0.009308	-0.009918	-0.244907	0.005951	
-0.009613	-0.015411	0.200046	-0.013580	
0.000153	-0.009918	0.152742	-0.006866	
-0.010834	-0.019684	0.119173	-0.010223	
-0.002899	-0.008392	0.126497	-0.006256	
-0.005035	-0.011749	0.022125	-0.016327	
0.000153	0.001984	-0.013580	-0.012054	
-0.004120	0.001068	0.047456	-0.017242	
-0.005341	-0.004425	-0.262913	-0.015106	
-0.009308	-0.007172	-0.486610	-0.014496	
0.001068	0.001678	-0.207370	0.004120	
-0.001984	-0.000763	0.306554	0.002899	
-0.001678	-0.001373	0.300450	0.009003	
-0.001678	0.003815	-0.142672	0.007782	
-0.009003	-0.005341	0.015411	-0.014496	
0.001984	0.007172	0.074616	-0.010223	
-0.002289	0.006256	-0.156405	-0.019379	
0.007172	0.016632	-0.127108	-0.012360	
-0.004120	0.004120	0.065461	-0.022736	
0.000153	0.011749	0.261997	-0.018463	
-0.006256	0.009308	0.132296	-0.022736	
-0.007477	0.014496	0.034333	-0.013580	
-0.013275	0.005646	0.027313	-0.017853	
-0.003204	0.013275	0.083467	-0.006256	
-0.006866	0.008392	-0.078279	-0.016632	
0.001984	0.006866	-0.283971	0.000153	
0.003204	0.008392	-0.034333	0.018158	
0.001984	0.011749	0.174411	0.011444	
-0.001068	0.014496	0.137789	-0.007477	
-0.001678	0.012665	0.050813	-0.003510	
-0.005341	0.010834	0.045625	0.002899	
-0.010223	0.005035	-0.050508	-0.004425	
-0.008087	0.004120	-0.200046	-0.007172	
-0.001984	0.002289	-0.352942	-0.008392	
0.002594	0.012054	-0.130465	-0.013275	
0.002899	0.010529	0.367895	-0.016327	
0.000153	0.016022	0.208896	-0.006256	
-0.013275	0.010223	-0.090486	0.001678	
-0.013275	0.009003	-0.132296	0.003815	
-0.023956	0.000458	-0.053559	-0.014496	
-0.020905	0.000763	0.120394	-0.007477	
-0.024872	-0.005341	0.103304	-0.004425	
-0.017548	-0.008087	0.158542	-0.003510	
-0.012360	-0.009918	0.100252	-0.007477	
-0.012360	-0.003510	0.076753	-0.009308	
-0.011749	0.000153	-0.009003	-0.011749	
-0.007477	-0.004120	0.036469	-0.009003	
-0.003815	-0.003204	-0.001678	-0.003510	
-0.001678	-0.003204	-0.043489	-0.006256	
-0.001068	0.000153	0.041352	-0.009003	
-0.000763	-0.006256	-0.055696	-0.012970	
0.006866	0.002289	-0.090180	0.004120	
-0.007782	-0.010834	0.021210	0.002289	
-0.002899	-0.011749	0.006256	-0.000763	
-0.007477	-0.015411	0.090180	-0.017242	
0.005646	-0.001068	0.084687	-0.016022	
0.005035	-0.003815	-0.037690	-0.027618	
-0.002289	-0.006256	-0.275730	-0.013885	
-0.006256	-0.007172	-0.225681	0.002899	
-0.004425	0.000153	0.131380	0.000763	
-0.001373	0.004425	0.088960	-0.010223	
-0.003204	0.009918	0.027008	-0.005035	
-0.003815	0.011749	0.026398	0.002899	
-0.008087	-0.000763	0.070039	-0.005951	
-0.001678	0.005951	0.041047	-0.007172	
-0.005035	0.006256	0.048982	-0.016022	
0.000763	0.019989	0.065461	-0.017853	
-0.005035	0.012054	0.056916	-0.027924	
-0.002289	0.016632	-0.015411	-0.021820	
-0.008392	0.005646	-0.011749	-0.016327	
-0.005035	0.010529	0.012665	-0.009613	
-0.005035	0.007172	0.028534	-0.019379	
-0.001373	0.005951	0.040437	0.004120	
-0.007477	0.001068	-0.153353	0.010529	
-0.002289	0.007172	0.070649	0.004120	
-0.007172	0.004120	0.045625	-0.003815	
-0.001678	0.005646	-0.093843	0.003815	
0.003204	0.001678	-0.147249	0.008392	
0.000153	-0.002289	-0.031587	0.002594	
0.001984	0.001678	0.087739	-0.007477	
-0.000153	0.006561	0.145418	-0.012054	
-0.001068	0.011749	0.188449	-0.014191	
-0.011139	0.003815	0.205234	-0.013275	
-0.013275	0.003204	-0.004425	-0.005646	
-0.015717	-0.004120	0.075227	-0.010529	
-0.015106	0.002594	-0.024567	-0.013275	
-0.015106	-0.001373	-0.349585	-0.014191	
-0.004120	0.007172	-0.052644	-0.005035	
-0.011749	0.006256	0.081941	-0.017242	
-0.009003	0.007782	-0.046540	-0.009308	
-0.006256	0.005951	-0.011139	-0.005646	
0.000763	0.006561	0.090791	-0.004425	
-0.003204	-0.003510	0.013275	-0.005035	
-0.002289	0.000153	-0.035859	0.002899	
-0.008087	0.000153	-0.031587	-0.004120	
-0.013275	-0.005646	0.105440	-0.009003	
-0.019684	-0.007172	0.016327	-0.013885	
-0.023651	-0.007782	-0.196383	-0.006256	
-0.015717	-0.005035	-0.050202	0.007782	
-0.015411	-0.009003	0.238194	-0.005341	
-0.002289	-0.000763	0.021210	-0.009918	
0.002289	-0.005951	-0.351416	-0.010529	
0.000458	0.004425	-0.082551	-0.002289	
-0.006256	-0.001678	-0.022430	-0.009308	
0.003204	0.010834	0.187839	-0.008392	
-0.006866	0.014496	0.308995	-0.002899	
-0.005951	0.016022	0.111238	0.009918	
-0.008392	0.009003	-0.043794	0.006256	
0.000458	0.017853	0.081941	0.004425	
-0.005646	0.012054	0.079499	-0.017242	
0.007172	0.017242	0.113375	-0.025787	
0.005035	0.013275	-0.102999	-0.034028	
0.001678	0.009003	-0.256809	-0.027924	
0.005951	-0.008087	-0.080110	-0.010529	
-0.003815	-0.021515	-0.110933	-0.002899	
-0.005646	-0.027008	0.004120	0.008698	
-0.005951	-0.030975	0.089570	0.023041	
-0.012054	-0.041352	-0.016937	0.016022	
-0.013885	-0.041047	0.012054	-0.004425	
-0.000763	-0.015106	0.126192	0.005035	
-0.007477	-0.016327	0.159762	-0.010529	
-0.006256	-0.012054	0.117647	-0.015717	
-0.010834	-0.011139	0.055085	-0.016327	
-0.001678	-0.001373	-0.047761	-0.007172	
-0.009613	-0.006256	-0.041963	-0.019073	
-0.002289	-0.001373	0.029144	-0.013885	
0.000153	0.001984	0.037385	-0.013885	
0.000458	0.005035	0.044404	-0.015106	
-0.003204	0.010223	0.016632	-0.013275	
-0.004120	0.008392	-0.033113	-0.010529	
-0.003510	0.010223	-0.102694	-0.005035	
-0.000763	0.008087	-0.102083	-0.004120	
0.000763	0.022430	-0.011444	-0.011444	
-0.007477	0.020599	-0.021515	-0.015106	
-0.011139	0.014801	-0.066682	-0.003510	
-0.010834	0.007172	-0.113070	0.006561	
-0.007172	0.019989	0.012360	0.002289	
-0.007172	0.024872	0.082856	-0.012970	
-0.007782	0.034944	-0.089875	-0.013275	
-0.009003	0.028839	-0.027008	-0.009308	
-0.002289	0.027313	0.095369	-0.005646	
-0.003510	0.026093	0.176547	-0.009918	
0.001678	0.026398	0.048676	-0.000763	
-0.005035	0.016937	-0.104219	0.000458	
-0.007782	0.010223	0.026093	0.002289	
-0.000763	0.009308	0.073396	0.005951	
-0.002289	0.007172	-0.006256	-0.000763	
-0.000153	0.017242	-0.012970	-0.006866	
-0.006256	0.012360	-0.095980	-0.015106	
-0.009308	0.016022	0.116426	-0.019684	
-0.016937	0.002594	0.248569	-0.021210	
-0.011444	0.005035	0.002289	-0.022430	
-0.009918	0.008698	-0.043489	-0.012360	
-0.009003	0.014496	-0.145418	0.003815	
-0.011444	0.010529	-0.120699	0.015106	
-0.003815	0.014191	-0.008087	0.020905	
-0.005341	0.014496	0.093843	-0.007477	
-0.001984	0.014496	0.073701	-0.011139	
-0.007782	0.012360	0.063935	0.001984	
-0.007782	0.010223	0.036469	0.001678	
-0.004120	0.007172	0.168307	-0.001678	
-0.001984	0.003815	0.083467	-0.004120	
-0.001984	0.004120	-0.005951	-0.012970	
0.005646	0.008087	-0.068208	-0.012054	
0.002594	0.007782	-0.099337	-0.014496	
0.001068	0.008698	0.073701	-0.019989	
0.000458	0.006866	0.304418	-0.012054	
-0.001984	0.000458	0.054475	-0.015106	
0.000153	0.010223	-0.500038	-0.011444	
-0.000153	0.004425	-0.331883	-0.010529	
0.002594	0.002899	0.139315	-0.003510	
-0.007782	-0.002289	0.184176	-0.017548	
-0.002899	0.002289	0.133211	-0.012054	
-0.009003	-0.012360	-0.006866	-0.005646	
-0.008087	-0.012970	0.004120	0.000763	
-0.007172	-0.019379	-0.003204	-0.004120	
-0.011444	-0.017548	0.064546	-0.005035	
-0.014191	-0.011444	0.057221	-0.008087	
-0.013580	-0.006256	-0.006866	-0.004425	
-0.005035	0.000763	-0.012360	-0.009308	
-0.003815	0.003815	0.001984	-0.017853	
-0.001984	0.005035	-0.001984	-0.025787	
-0.005951	-0.001068	-0.116426	-0.013275	
-0.004425	-0.008087	0.018463	0.015106	
-0.003510	-0.007172	0.000153	0.009003	
-0.002289	-0.007782	-0.053559	-0.018463	
-0.012970	-0.009613	-0.298009	-0.021820	
0.001678	0.004425	-0.288548	0.003204	
-0.003815	0.001984	0.418250	-0.005035	
-0.004425	0.000458	0.506142	-0.004425	
-0.008087	-0.005035	-0.152742	-0.005035	
-0.001984	-0.000763	-0.342565	-0.009003	
-0.009918	0.002289	0.030670	-0.019684	
-0.001678	0.014191	0.419471	-0.009918	
-0.008392	0.009918	0.150606	-0.000153	
-0.011444	0.016022	-0.153048	0.008698	
-0.005951	0.019379	-0.165866	-0.009918	
-0.009308	0.007782	-0.231174	-0.013275	
-0.007477	0.003815	-0.189364	-0.003510	
-0.008392	0.001678	0.143587	-0.001984	
-0.004425	0.000763	0.390783	0.009308	
-0.006256	-0.007477	0.134127	-0.001984	
-0.004120	-0.005035	0.000153	0.002289	
-0.013885	-0.006866	0.045625	-0.000153	
-0.009003	-0.011444	0.048371	-0.010223	
-0.009308	-0.013885	0.058747	-0.028229	
-0.010223	-0.009613	0.053559	-0.024261	
-0.013580	-0.009613	0.091096	-0.031587	
-0.008392	-0.003815	0.070039	-0.025482	
-0.007477	-0.007782	0.011749	-0.025787	
-0.005341	-0.007172	-0.174716	-0.016022	
-0.005646	-0.007172	-0.388037	-0.004425	
-0.003815	-0.005035	-0.365454	0.016022	
0.001068	0.001678	-0.132906	0.019989	
0.004120	0.010834	0.330358	0.002899	
0.002899	0.013885	0.168612	0.001678	
0.000458	0.006256	0.071565	-0.002899	
0.003815	0.009003	0.059052	0.005341	
-0.011749	-0.004120	0.017853	-0.007477	
-0.001068	0.004120	-0.032197	0.000763	
-0.004425	-0.003815	0.024261	-0.009003	
0.005646	0.001068	0.243687	-0.005646	
-0.008392	0.000153	0.160068	-0.019989	
-0.009918	0.009003	0.132601	-0.009918	
-0.012054	0.000763	0.096895	-0.000763	
-0.013275	0.000153	-0.123140	0.001678	
-0.011139	-0.003510	-0.362707	-0.006256	
-0.005035	0.002594	-0.242466	0.011139	
-0.002899	0.003204	-0.195468	0.019379	
-0.005035	0.007782	0.045014	0.008392	
-0.001068	0.012054	0.087434	-0.003510	
-0.008087	0.009918	0.004425	-0.021210	
-0.003815	0.012054	-0.089265	-0.031281	
-0.002289	0.014801	-0.227512	-0.020294	
0.001678	0.023346	-0.153353	-0.001373	
-0.001373	0.023346	0.175632	-0.008087	
-0.001068	0.025177	0.474098	-0.005035	
-0.009613	0.015106	0.195773	-0.013275	
0.002899	0.021820	0.032807	-0.013580	
-0.003815	0.012970	-0.011444	-0.020599	
-0.002899	0.019073	0.027924	-0.010529	
-0.007782	0.012360	0.108187	-0.013580	
-0.007477	0.013275	0.082551	-0.015106	
-0.012054	0.004425	-0.027924	-0.019684	
-0.009613	0.005951	0.051118	0.004730	
-0.005951	0.005951	0.160373	0.012665	
-0.008087	0.000763	-0.040437	0.005035	
-0.009613	0.000153	-0.202487	0.008698	
-0.013580	-0.006256	-0.117342	-0.002289	
-0.009613	-0.007477	0.061799	-0.006256	
-0.011749	-0.015717	0.014191	-0.012054	
-0.003815	-0.009003	-0.035554	-0.013275	
-0.001678	-0.006866	-0.074311	-0.019989	
-0.000153	0.000458	-0.117647	-0.012970	
-0.005035	0.000153	-0.074922	-0.005951	
0.002899	0.004425	-0.086823	-0.001984	
-0.005035	-0.003204	0.006256	-0.018463	
0.000763	0.005646	0.338292	-0.013580	
-0.011749	-0.009308	-0.019989	-0.016632	
-0.012360	-0.004120	-0.036775	-0.002289	
-0.011139	0.001068	-0.019989	-0.007782	
-0.001373	0.001068	0.013275	-0.009918	
-0.003204	0.003204	0.070954	-0.007477	
0.002289	0.002899	0.081941	-0.005646	
-0.000763	-0.001984	0.103609	-0.011139	
-0.001984	-0.001984	0.023956	-0.004425	
0.005646	-0.005341	-0.084382	-0.003204	
-0.000763	-0.006866	-0.095369	-0.017853	
-0.005341	-0.002289	-0.035859	-0.017242	
-0.013275	-0.008392	0.037690	-0.013275	
-0.007477	-0.007172	-0.056001	-0.003510	
-0.006256	-0.003815	0.047761	-0.001984	
-0.007782	0.000153	0.212558	-0.010529	
-0.009003	-0.001068	0.074922	-0.011749	
0.000153	0.004120	-0.081025	-0.007172	
-0.002899	0.004120	-0.021820	-0.003815	
-0.007172	0.008698	0.087739	0.005035	
-0.011749	0.004120	0.179599	-0.001373	
-0.008392	0.010834	0.053559	-0.001984	
-0.006256	0.012970	-0.490883	-0.007477	
-0.012360	-0.005341	-0.545815	-0.008087	
-0.015106	-0.007477	-0.255894	-0.001373	
-0.006256	0.005035	0.138399	0.003204	
0.000458	0.010223	0.482948	0.001678	
-0.003815	-0.000763	0.436561	0.001068	
0.005035	0.002594	0.188449	0.010834	
-0.005646	-0.009613	0.174716	-0.009003	
-0.005035	-0.009308	0.062409	-0.015106	
-0.007172	-0.011444	-0.090180	-0.012054	
0.005035	-0.001678	-0.175632	0.003815	
0.000153	-0.001068	-0.020294	-0.005035	
0.008087	0.000763	0.109102	-0.003204	
0.006866	-0.005341	0.000153	-0.018463	
0.007782	0.001984	0.117647	-0.008392	
0.005035	0.002594	-0.004120	-0.013885	
0.002289	0.000763	-0.240330	-0.020294	
-0.002289	0.002899	-0.399939	-0.011139	
-0.003510	0.008698	-0.171054	-0.001984	
-0.008392	0.005951	0.338902	0.004120	
-0.016937	-0.004120	0.271458	-0.000153	
-0.011139	-0.007477	0.168918	0.001678	
-0.009308	-0.006256	0.078889	0.002289	
-0.010223	-0.001984	-0.077973	-0.006256	
-0.013580	0.004425	-0.093232	-0.017242	
-0.005951	0.006256	-0.002289	-0.010223	
-0.006866	0.002289	0.073701	-0.014191	
0.000153	0.008698	0.125277	-0.014496	
-0.008392	0.000458	0.012970	-0.017242	
-0.005035	0.002289	-0.023041	-0.010223	
-0.006866	0.004120	-0.068818	-0.005951	
-0.003204	0.001678	-0.117647	-0.003510	
-0.005341	0.001984	-0.125582	-0.005341	
-0.003510	-0.001068	-0.093843	-0.000763	
-0.003815	0.000153	-0.006256	0.005035	
-0.009613	-0.001373	-0.001678	-0.001373	
-0.008087	0.005035	-0.124056	0.006561	
-0.007782	-0.001373	0.022736	0.001068	
-0.006866	-0.002899	0.079499	-0.003815	
-0.007782	0.004120	0.064546	-0.014191	
-0.006256	0.005951	0.045625	-0.025787	
-0.013275	0.006256	-0.032502	-0.031281	
-0.009308	0.010223	-0.139620	-0.026093	
-0.010834	0.002899	-0.034638	-0.022125	
0.000763	0.004425	0.177157	-0.007782	
0.003204	0.004425	-0.056306	-0.006866	
0.002899	0.001678	-0.361792	-0.009613	
-0.008087	-0.002899	0.213473	-0.008392	
-0.003510	0.014496	0.367895	0.006561	
-0.008392	0.012360	-0.063630	0.016632	
-0.016937	0.008087	0.024567	0.019379	
-0.017548	0.010529	0.087739	0.015411	
-0.006256	0.010223	0.168002	0.001678	
0.000458	0.008392	0.099337	-0.001678	
-0.003204	0.006561	0.070954	-0.003815	
-0.001068	0.007172	0.047151	-0.004120	
-0.005341	0.008698	-0.027924	-0.011139	
-0.003510	0.016632	-0.060884	-0.009308	
-0.012360	0.006256	-0.037690	-0.019684	
-0.008087	0.007172	0.015411	-0.011749	
-0.009003	0.005035	-0.011139	-0.008087	
-0.007477	0.007782	-0.063020	-0.007477	
-0.004120	0.004120	-0.134737	-0.023651	
-0.000153	0.007782	-0.046235	-0.028839	
-0.006256	0.008392	0.072480	-0.035554	
-0.003510	0.007782	0.073091	-0.019684	
-0.009308	-0.001373	0.121004	0.010834	
-0.005646	0.010223	-0.041963	0.025177	
-0.009308	0.004425	-0.357824	-0.009308	
-0.009613	0.000458	-0.183566	-0.011139	
-0.003510	-0.001068	-0.074006	0.012360	
-0.005646	-0.005341	0.473488	0.016632	
-0.007172	0.000458	0.217441	0.005035	
-0.014801	-0.005646	-0.041963	-0.012054	
-0.007477	-0.000153	-0.060273	-0.008087	
-0.007172	-0.001373	-0.082246	-0.013885	
-0.000153	0.008392	0.024872	-0.005951	
-0.005035	0.004730	0.199740	-0.017853	
-0.001984	0.017853	0.271458	-0.020294	
-0.009308	0.006256	-0.064546	-0.021210	
0.001068	0.012970	0.002289	0.008392	
-0.001678	0.013275	0.094759	0.005341	
-0.001678	0.013885	-0.106356	-0.008392	
-0.000763	0.010223	-0.107882	-0.013885	
-0.002289	0.010834	-0.114901	-0.012970	
-0.001984	0.010834	-0.034333	-0.010529	
0.001068	0.012970	0.041047	-0.014496	
-0.002289	0.011749	0.054475	-0.022430	
-0.001068	0.010223	-0.201266	-0.013275	
-0.001068	0.000763	-0.023651	-0.007172	
0.000763	-0.001373	0.204318	-0.001984	
0.009918	0.003204	-0.004425	0.007172	
-0.009308	-0.004120	-0.060578	0.005951	
-0.003204	0.005951	0.035554	0.010834	
-0.002899	-0.000763	0.241856	-0.007172	
-0.001984	-0.000153	0.143892	-0.013580	
-0.006866	-0.005035	-0.106661	-0.023346	
-0.001678	-0.009308	-0.062409	-0.016632	
0.003815	-0.012054	-0.127108	-0.011444	
0.001068	-0.005035	-0.217135	-0.022736	
-0.008087	-0.007782	-0.186007	-0.014496	
-0.012970	-0.010834	-0.094454	-0.006256	
-0.015717	-0.007172	0.004730	-0.012360	
-0.012360	-0.011139	0.197299	-0.005951	
-0.009308	-0.006866	0.035554	0.009003	
-0.008087	-0.001068	0.044709	0.020905	
-0.004425	0.005035	0.228428	0.010529	
-0.006256	0.009918	0.224155	0.006866	
-0.006866	0.010834	0.077363	0.004425	
-0.005341	0.004120	-0.032502	-0.003510	
0.006256	0.009003	-0.062409	-0.008087	
-0.001984	0.002289	-0.118868	-0.015106	
-0.000153	0.009308	-0.057832	-0.010529	
0.000458	0.012970	0.060273	-0.021820	
0.001984	0.021820	0.180209	-0.017242	
0.000458	0.018768	0.083772	-0.021515	
-0.000153	0.021820	-0.041963	-0.017242	
-0.006256	0.015717	-0.010223	-0.011139	
-0.015717	0.011139	0.023041	-0.002289	
-0.017242	0.009308	0.012054	-0.004425	
-0.018463	0.004425	-0.001678	-0.011139	
-0.014801	0.008392	-0.162814	-0.014496	
-0.012054	0.002289	-0.339513	-0.019073	
-0.012970	0.001068	-0.191501	-0.013275	
-0.012360	-0.000763	-0.201571	-0.003510	
-0.004425	0.004425	0.147860	0.009918	
-0.009613	-0.002289	0.251316	-0.004425	
-0.008087	0.000153	-0.001984	-0.006866	
-0.009918	0.003204	-0.075837	-0.002289	
-0.002899	0.004730	0.282750	-0.000153	
0.001984	0.001678	0.468299	-0.008087	
0.002899	0.004120	0.290074	-0.017853	
-0.007782	-0.004425	0.134432	-0.021820	
-0.013275	-0.008087	-0.021210	-0.010529	
-0.010223	-0.003815	-0.146334	0.002899	
-0.003815	-0.006866	-0.320897	0.012360	
-0.012970	-0.015106	-0.484474	0.009308	
-0.007477	-0.017242	-0.252842	0.002594	
0.001678	-0.011749	0.071565	0.007172	
-0.003510	-0.015717	0.275730	-0.002899	
-0.005951	-0.010834	0.153963	-0.001984	
-0.011139	-0.008392	0.055696	-0.007477	
0.002289	-0.000763	0.077973	-0.011444	
0.000458	-0.003815	0.038606	-0.021820	
0.002594	0.000153	0.056611	-0.024567	
0.001068	0.004425	0.055085	-0.031587	
0.006256	0.010223	-0.083161	-0.026093	
0.000458	0.005035	-0.199130	-0.030060	
0.001068	0.001984	-0.086213	-0.006256	
-0.005341	-0.000763	0.097811	0.015106	
-0.011749	-0.002289	0.271152	0.022430	
-0.011444	-0.008392	-0.098116	0.019379	
-0.007782	-0.008392	-0.128328	0.009918	
-0.005951	-0.003815	-0.032197	0.002289	
-0.002289	0.001678	-0.206454	0.005341	
-0.004120	0.000763	-0.009308	-0.005035	
-0.010223	0.004120	0.266575	-0.011749	
-0.002289	0.009003	0.236362	-0.000763	
-0.002289	0.002594	0.141451	-0.002289	
-0.001678	0.010223	0.142061	0.000763	
-0.005341	0.002289	0.075227	-0.009613	
0.000458	0.008698	-0.050202	-0.006256	
-0.005951	0.006866	-0.198825	-0.016327	
-0.001373	0.013275	-0.277866	-0.019379	
-0.005341	0.010834	-0.052949	-0.016327	
-0.006256	0.016022	0.084687	0.002289	
-0.007782	0.014801	-0.013580	-0.004120	
-0.003204	0.010834	0.106050	-0.005035	
-0.006256	0.010834	0.344702	0.005341	
-0.009613	0.007172	-0.143587	0.001068	
-0.002289	0.008087	-0.288548	-0.003510	
-0.001678	0.013275	0.215915	-0.010223	
-0.001373	0.011139	0.189670	-0.013580	
-0.000763	0.006256	-0.168002	-0.015106	
-0.003204	0.005951	-0.118868	-0.010529	
-0.009003	0.005035	0.051423	-0.020294	
-0.002289	0.006561	-0.052339	-0.016327	
-0.013580	-0.007172	-0.096590	-0.014496	
0.004730	0.011139	0.122225	-0.000763	
0.001984	0.003204	0.182956	-0.013275	
0.009003	0.012970	0.211032	-0.016327	
-0.000153	-0.000153	0.162509	-0.010223	
-0.005035	0.000153	0.037690	0.001984	
-0.008392	0.000763	-0.121309	-0.003204	
-0.003510	0.000153	-0.228123	0.000458	
-0.011139	0.000458	-0.095369	0.000153	
-0.023346	-0.012054	-0.027313	-0.002899	
-0.017548	-0.012054	-0.086518	-0.008087	
-0.009003	0.001678	-0.087129	-0.010223	
-0.011444	0.004120	-0.056306	-0.011444	
-0.007782	0.007782	-0.073091	-0.025177	
-0.000153	0.018158	-0.038301	-0.013275	
-0.008392	0.003815	-0.175326	-0.003815	
-0.011139	0.005951	-0.053864	-0.001068	
-0.008392	0.004120	0.231174	-0.015106	
-0.009308	0.000153	0.204623	-0.025787	
-0.011749	-0.003510	-0.023651	-0.022430	
-0.000153	-0.000153	-0.175632	-0.000153	
-0.010223	-0.005951	0.036469	0.011444	
-0.009613	-0.005341	0.221104	0.023041	
-0.016022	-0.011444	0.339513	0.011444	
-0.009308	-0.000763	0.160678	0.008698	
-0.006866	0.001678	0.105135	0.000763	
-0.006256	0.004425	0.096895	-0.000153	
-0.006866	-0.000153	0.041352	-0.011444	
-0.002289	-0.000763	-0.093232	-0.015106	
0.001678	0.007172	-0.104525	-0.012970	
-0.005646	-0.000763	-0.004120	-0.019379	
-0.001984	0.007782	-0.077058	-0.015717	
-0.006866	0.003815	-0.203097	-0.022125	
-0.001068	0.012970	-0.036164	-0.016022	
-0.006256	0.006561	0.068513	-0.025177	
-0.001678	0.012054	-0.070039	-0.030365	
-0.006866	-0.001373	-0.034638	-0.018158	
-0.003815	0.004425	0.125887	0.027313	
-0.006866	0.005951	0.049287	0.019073	
-0.001068	0.009003	-0.055696	0.008087	
0.001068	0.004730	-0.188144	-0.002289	
0.001678	0.010834	-0.146334	-0.009308	
0.002899	0.014496	0.050202	-0.015717	
0.008087	0.017242	0.092011	-0.017548	
-0.000763	0.009003	0.098116	-0.019684	
-0.007477	0.005951	0.196994	-0.017548	
-0.011444	0.005646	0.073396	-0.011139	
-0.022430	-0.005646	0.154879	-0.018463	
-0.011139	0.002289	-0.028229	-0.016022	
-0.012360	-0.002289	0.016327	-0.021210	
-0.007477	-0.005341	0.029144	-0.007172	
-0.003815	-0.001373	-0.084382	-0.002899	
0.002289	0.006561	-0.017548	-0.001373	
-0.009003	-0.003204	-0.183566	-0.002289	
-0.001984	0.003815	-0.127718	0.001984	
-0.003510	-0.002899	0.186923	0.001068	
0.001068	-0.000763	0.137484	0.011139	
-0.004425	0.000153	-0.052949	0.006561	
0.000458	-0.003815	-0.151827	-0.005035	
-0.002289	-0.006866	-0.164950	-0.005035	
-0.012970	-0.015411	-0.078279	-0.005951	
-0.011444	-0.015717	0.092622	-0.009308	
-0.010223	-0.013275	-0.032502	-0.019379	
-0.014191	-0.009308	0.117647	-0.023956	
-0.014191	-0.007477	0.200656	-0.023651	
-0.003204	0.001678	-0.092011	-0.013275	
-0.002289	0.002899	0.037080	-0.005951	
-0.001068	0.006256	0.269627	-0.003510	
-0.009613	0.002899	0.084687	-0.013885	
-0.003815	0.005951	-0.040437	0.014191	
-0.011749	-0.009308	-0.122530	0.019379	
-0.004425	-0.001068	-0.086518	0.015106	
-0.009613	0.000458	0.039521	0.006561	
-0.000153	0.010223	0.232395	0.000153	
0.000763	0.010834	0.099642	-0.011139	
0.003204	0.019379	-0.187839	-0.011444	
0.002594	0.018768	-0.173495	-0.019073	
0.001068	0.013885	-0.007782	-0.022736	
-0.001984	0.012970	-0.117647	-0.030060	
-0.013885	0.005951	-0.139620	-0.033723	
-0.011139	0.001984	-0.001373	-0.017853	
-0.007782	-0.000153	-0.175021	-0.016327	
-0.003815	0.002594	-0.011749	-0.008392	
-0.007477	-0.005646	0.276951	-0.000763	
-0.006256	-0.005646	0.462806	0.006561	
-0.013580	-0.014801	0.363928	0.000153	
-0.011444	-0.012054	-0.113070	0.012054	
-0.017242	-0.020905	-0.207370	-0.000763	
-0.012360	-0.008087	-0.096895	-0.005035	
-0.009613	-0.003510	0.155489	-0.013885	
0.001068	0.010223	0.170138	-0.011139	
-0.003204	0.005951	0.013885	-0.017242	
0.004730	0.009308	-0.066072	-0.010223	
-0.002289	0.005035	-0.174716	-0.010529	
-0.003510	0.009003	-0.130770	0.000763	
0.004120	0.012970	-0.139620	0.005951	
0.006866	0.014496	0.055085	-0.001678	
0.006866	0.013275	-0.013275	-0.015411	
-0.001068	0.014496	-0.131380	-0.013580	
-0.002289	0.009003	-0.009918	-0.004425	
-0.005035	-0.000153	0.233006	0.000458	
0.000458	0.004730	0.129854	0.005951	
-0.014801	-0.005341	-0.173495	-0.006866	
-0.004120	0.006256	0.042268	0.009003	
-0.011444	0.002289	0.152742	-0.005035	
-0.009613	0.003204	0.020294	-0.002289	
-0.009308	0.000458	0.008392	0.005035	
-0.007782	0.004730	0.011139	-0.005951	
-0.007172	0.003204	0.045320	-0.012970	
0.001068	0.004425	0.084687	-0.009308	
-0.005341	0.002289	0.042268	-0.013885	
-0.003204	0.010223	0.021515	-0.014496	
-0.001068	0.016937	-0.001678	-0.017242	
-0.003815	0.009918	-0.258335	-0.022125	
-0.003815	0.014496	-0.145418	0.000153	
-0.003204	0.012665	0.047151	0.016937	
-0.003204	0.012970	0.196994	0.015411	
-0.006256	0.008698	-0.189364	0.006256	
-0.001984	0.010834	-0.544595	0.000763	
-0.010223	0.005951	0.020599	0.006561	
-0.007172	0.000153	0.142366	-0.001984	
-0.003510	-0.003510	0.186313	-0.020294	
-0.004425	-0.000153	0.218356	-0.017548	
-0.013885	0.001984	0.108797	-0.011749	
-0.009613	0.004120	0.110933	-0.003510	
-0.011139	0.000153	0.194247	-0.020599	
-0.003204	0.007782	0.256809	-0.021515	
-0.005951	0.010529	0.010529	-0.014191	
-0.002289	0.018158	-0.068818	0.001678	
-0.003510	0.009308	-0.120699	0.002899	
-0.002899	0.004120	-0.182956	0.004120	
-0.001678	0.004425	0.009308	-0.005035	
-0.009003	-0.003204	0.030365	-0.015411	
-0.003510	-0.000153	-0.393530	0.000763	
-0.012360	-0.015411	-0.190280	0.005035	
-0.003510	-0.008087	0.235142	0.011444	
-0.007172	-0.015717	0.211947	-0.009918	
-0.003510	-0.003510	-0.121004	-0.008392	
-0.009918	-0.005646	-0.070649	-0.013885	
-0.002289	-0.001984	0.008698	-0.014496	
-0.003815	-0.003510	0.077058	-0.025787	
-0.001984	-0.000763	0.298314	-0.031281	
0.001984	-0.001068	0.289464	-0.030060	
-0.000153	0.001678	0.048676	-0.017242	
-0.004425	0.000458	0.054780	0.004120	
-0.007782	0.000458	-0.117647	0.000153	
-0.008087	-0.001678	-0.277256	-0.012054	
-0.011139	-0.008392	-0.058747	0.002899	
-0.008392	-0.001678	0.139925	0.018158	
-0.009613	-0.001373	0.127718	0.005951	
-0.003510	0.004730	-0.035554	0.002289	
-0.005951	0.008698	-0.054170	-0.009308	
-0.005035	0.010529	0.024872	-0.016022	
-0.009613	0.002899	0.125277	-0.021820	
-0.003204	0.005951	0.042878	-0.016022	
-0.007172	0.008087	-0.130770	-0.023956	
-0.008087	0.013275	-0.343786	-0.028534	
-0.013885	0.005646	-0.430762	-0.019073	
-0.009003	0.012360	-0.042573	0.001068	
-0.009003	0.004425	0.435035	-0.004425	
-0.001984	0.002289	0.334020	-0.006256	
0.001984	0.008392	-0.043183	-0.002899	
-0.003815	0.004730	-0.117647	-0.003204	
-0.003204	0.005951	0.041657	-0.002899	
-0.005951	0.002289	0.033113	-0.013275	
-0.007782	-0.001373	-0.032197	-0.012360	
-0.011749	0.000153	0.026703	-0.019073	
-0.007172	-0.000153	0.236973	-0.011444	
-0.005646	-0.008392	0.033113	-0.007172	
0.004425	0.009308	0.117342	0.000153	
-0.002899	0.005951	0.265049	-0.003815	
0.002289	0.010223	0.009308	-0.008087	
-0.003815	0.010529	-0.375525	-0.013885	
-0.005341	0.012970	-0.106661	0.006866	
-0.005035	0.006561	-0.061799	0.012360	
0.000458	0.004730	-0.389563	0.010834	
-0.000153	0.004120	-0.209811	0.004120	
-0.003815	0.003204	0.101473	-0.003204	
-0.002289	0.004730	0.318151	0.000763	
-0.005951	0.004730	0.338292	-0.009918	
-0.003204	0.011139	0.224766	-0.007172	
-0.001984	0.013885	-0.049592	-0.004425	
0.000763	0.011749	-0.125277	0.002899	
-0.001373	0.009003	-0.161899	-0.005646	
0.001068	0.008698	0.100252	-0.017242	
-0.005951	0.005951	0.253147	-0.025177	
-0.004425	0.007782	0.079804	-0.022125	
-0.014191	-0.005951	-0.044099	-0.009003	
-0.000763	-0.000153	-0.058137	0.011139	
-0.003815	-0.001984	-0.180820	-0.001373	
-0.005951	-0.000153	-0.068513	-0.003510	
-0.013580	-0.005341	0.177768	-0.009308	
-0.013580	0.002899	-0.021820	-0.002899	
-0.008087	0.001678	-0.096285	-0.001984	
-0.002899	0.000763	-0.062104	-0.007172	
-0.000153	0.006561	0.087434	-0.008087	
-0.009003	0.009308	-0.020599	-0.011749	
-0.005951	0.004425	-0.112154	-0.006256	
-0.006256	-0.001984	0.009918	-0.002289	
-0.001068	-0.001984	0.183871	-0.009613	
-0.008087	-0.007172	0.126497	-0.025787	
-0.004425	-0.000153	-0.155184	-0.020599	
-0.005646	-0.002899	-0.074616	-0.016327	
0.006866	0.003815	0.131380	-0.002289	
-0.007782	-0.009308	0.298009	-0.003510	
-0.006866	-0.000763	0.028534	0.006866	
-0.013580	-0.003204	-0.480507	0.012665	
-0.014191	0.003815	-0.243992	0.012360	
-0.019073	0.000458	0.092622	-0.001984	
-0.013885	0.000153	0.178683	-0.011749	
-0.018158	0.000458	-0.042573	-0.024261	
-0.013885	0.003815	0.001984	-0.024567	
-0.003510	0.004730	0.052339	-0.023651	
-0.002289	-0.001984	-0.156405	-0.021210	
0.000153	-0.001068	-0.042573	-0.011444	
-0.003204	0.000458	0.443274	-0.003204	
-0.006866	0.000458	0.532083	0.015106	
-0.007172	-0.001068	0.059358	0.023651	
-0.003815	-0.005341	-0.318151	0.020599	
-0.003204	-0.007172	-0.242771	0.001068	
0.005646	-0.003204	-0.103914	-0.007477	
0.001984	-0.001984	-0.032502	-0.011444	
0.004120	0.004425	0.124056	-0.003510	
-0.001984	0.002594	0.152742	-0.015106	
0.002594	0.008698	0.063020	-0.012970	
0.004730	0.007172	-0.066072	-0.019073	
0.008392	0.010834	-0.290380	-0.023346	
0.008392	0.007172	-0.148470	-0.024261	
0.010223	0.007782	0.223240	-0.009308	
0.008698	0.011749	0.181125	-0.018463	
0.002899	0.001984	0.091401	-0.019073	
-0.003204	0.000458	0.098116	-0.002899	
-0.010223	0.000153	0.022430	-0.004120	
-0.008392	-0.000763	-0.193332	0.000763	
-0.009003	-0.005951	-0.428321	0.001984	
-0.000153	0.002289	-0.010223	0.009918	
-0.006866	-0.004120	0.229649	-0.000763	
-0.000763	0.005951	0.136263	0.001678	
-0.008087	-0.002899	0.169528	0.001678	
-0.019684	-0.001984	0.195163	-0.000153	
-0.024872	-0.003815	-0.014191	0.001068	
-0.015411	0.003815	-0.119478	-0.004120	
-0.012360	-0.003510	-0.023346	-0.013885	
-0.001373	0.004425	0.001678	-0.010223	
-0.009613	0.008698	-0.013580	-0.010529	
-0.005951	0.012970	-0.029144	-0.003204	
-0.008087	0.010529	-0.023956	-0.005035	
-0.022430	0.005035	-0.003204	-0.006866	
-0.021820	0.002899	0.000153	-0.007172	
-0.016022	0.005646	-0.023346	-0.008087	
-0.009613	-0.000763	0.009308	-0.003510	
-0.010834	-0.003204	-0.046540	-0.015717	
-0.002289	0.006256	-0.121309	-0.017242	
-0.000763	0.004120	-0.125277	-0.023956	
0.002289	0.009003	0.049287	-0.009003	
0.002289	0.006561	0.188754	-0.003510	
0.010834	0.016022	0.144197	0.012054	
-0.005951	0.009308	0.065766	0.000153	
-0.006866	0.011749	-0.089875	0.005035	
-0.003815	0.012970	-0.066987	0.002289	
0.005951	0.022430	-0.005951	-0.009003	
0.005646	0.017242	-0.106050	-0.023956	
0.004120	0.012665	-0.299230	-0.015106	
-0.000763	0.011139	-0.171359	0.000153	
-0.005646	0.009308	0.246738	-0.007172	
-0.002289	0.014191	0.496071	-0.020294	
-0.011749	0.011749	0.202792	-0.020599	
-0.007782	0.009003	0.049287	-0.005646	
-0.005341	0.001678	0.147860	-0.015106	
0.002899	0.012970	0.137484	0.000763	
-0.003510	0.006561	0.009003	0.015106	
-0.003204	0.002594	-0.075837	0.024872	
0.003204	-0.000153	-0.125277	0.022430	
0.003204	-0.001984	-0.139620	0.010223	
-0.003510	-0.008087	-0.189059	-0.009613	
0.001678	0.004120	-0.067903	-0.013885	
-0.001373	0.006256	0.073701	-0.013275	
-0.007477	0.007172	0.114901	-0.004120	
-0.006866	0.003204	0.157931	-0.000763	
-0.012360	-0.005341	0.070039	-0.000763	
-0.006256	0.005646	-0.122530	-0.002899	
-0.005951	0.005035	-0.215915	-0.019379	
-0.003815	-0.005646	-0.059358	-0.012054	
-0.004425	-0.008392	0.037690	-0.009918	
0.004730	0.001984	0.101778	-0.004120	
-0.001678	-0.000153	0.156711	-0.011444	
0.004425	0.002289	-0.081941	-0.009003	
0.002594	0.002594	0.107576	-0.002899	
0.003815	0.007782	0.238804	0.012970	
-0.008087	-0.000153	-0.057527	-0.000763	
-0.000153	0.004730	-0.021210	-0.001984	
-0.005341	0.000458	0.083161	-0.011444	
-0.010834	0.001678	0.085603	-0.017853	
-0.011749	0.006561	0.021210	-0.027924	
-0.007782	0.013275	-0.016937	-0.030060	
-0.011139	0.005646	-0.246433	-0.028839	
-0.011139	0.000763	-0.360876	-0.009003	
-0.005951	-0.000153	-0.061494	0.014496	
-0.001068	0.000458	0.073701	0.016632	
0.000153	0.009003	-0.142977	0.009003	
-0.009003	0.001984	0.074616	0.002289	
-0.001068	0.011749	0.151522	0.000458	
-0.010223	0.010529	0.162204	-0.014496	
-0.009308	0.012970	0.113985	-0.016327	
-0.008087	0.010223	0.104830	-0.021515	
-0.001373	0.013885	0.103304	-0.021210	
-0.006866	0.007782	0.115511	-0.032197	
-0.003815	0.009003	0.139315	-0.030060	
-0.006256	-0.002899	0.045014	-0.026703	
-0.005341	-0.000763	0.113680	-0.018463	
-0.017242	-0.009918	-0.148470	-0.023651	
-0.013580	-0.004120	-0.730755	-0.009308	
-0.008087	-0.002899	-0.921798	0.012970	
-0.011749	-0.005341	0.027008	0.032807	
-0.017853	-0.006256	0.922408	0.019379	
-0.023346	-0.013885	0.402990	0.002289	
-0.017548	-0.008392	-0.054170	0.000763	
-0.013885	-0.008087	-0.019684	-0.002289	
-0.009003	-0.008392	0.140535	-0.001984	
-0.005341	-0.000153	0.107882	-0.001678	
-0.002899	0.004120	-0.007172	-0.005646	
-0.009613	0.002594	0.045014	-0.016327	
-0.001373	0.012360	0.036164	-0.005035	
-0.005646	0.001678	0.000458	-0.011139	
0.005035	0.004425	-0.046845	-0.006866	
0.001984	0.000458	-0.060578	-0.012970	
0.000153	0.004730	-0.061799	-0.014496	
-0.001373	0.002899	-0.038606	-0.014191	
0.000153	-0.005341	0.122530	-0.013580	
0.000458	0.001984	0.080720	-0.009613	
-0.005646	-0.001678	-0.157931	-0.000153	
-0.004120	-0.007782	-0.170749	0.029449	
-0.008087	-0.007172	-0.177768	0.012970	
0.002899	0.006866	0.051728	-0.009003	
0.004730	0.006256	0.123140	-0.022430	
0.006866	0.018158	-0.161288	-0.019379	
0.005951	0.020599	-0.012360	-0.022736	
0.005035	0.021820	-0.074311	-0.016327	
-0.005951	0.012970	-0.030365	-0.005035	
-0.011749	0.006256	0.060578	0.001678	
-0.020294	-0.009308	0.149691	0.006561	
-0.016937	-0.008087	0.290380	0.002899	
-0.005646	0.002594	0.119783	-0.005646	
0.002899	0.008087	0.018768	0.000763	
-0.002289	-0.000153	0.005951	-0.009308	
-0.005341	0.000763	-0.077058	-0.003815	
-0.014191	-0.005341	-0.023956	-0.017853	
-0.007782	-0.001984	0.220493	-0.017853	
-0.010223	0.004120	0.036469	-0.012970	
-0.008392	0.012970	-0.164645	-0.013580	
-0.011749	0.008698	-0.172885	-0.012970	
-0.011139	0.007172	-0.061494	-0.018158	
-0.000153	0.016022	-0.022430	-0.021820	
-0.000763	0.016327	-0.037385	-0.018463	
0.006256	0.019073	0.077058	-0.000763	
-0.009003	0.008392	0.224766	-0.007172	
-0.001984	0.013885	0.137789	-0.010529	
-0.007782	0.001678	-0.114595	-0.023651	
-0.005646	0.003204	-0.084077	-0.016632	
-0.004120	-0.003510	0.104219	-0.008392	
-0.003204	-0.010834	0.093232	0.017548	
-0.004425	-0.005035	-0.090180	0.009918	
-0.005341	-0.004425	-0.240025	-0.008392	
0.002289	0.004425	0.044709	-0.013580	
0.004730	0.007172	-0.031587	-0.009918	
0.006561	0.002899	-0.285192	-0.000763	
0.004425	0.000458	-0.095369	0.011139	
-0.002289	-0.002289	0.261692	0.013885	
-0.005951	-0.006256	0.265659	-0.005035	
-0.002899	-0.009613	0.091096	-0.003510	
-0.001678	-0.005951	0.188144	-0.004120	
-0.000153	-0.001984	0.234226	0.006256	
-0.010834	-0.009613	0.165866	0.002289	
-0.011749	-0.007172	-0.119478	0.002899	
-0.022430	-0.019073	-0.262608	-0.008392	
-0.003815	-0.008392	-0.109407	-0.004425	
-0.003204	-0.007477	0.098116	-0.014191	
0.003204	0.000763	0.086213	-0.013580	
0.000763	-0.000153	0.010223	-0.013580	
-0.003204	-0.000153	-0.008392	-0.012970	
-0.005341	0.002899	-0.092011	-0.016022	
-0.011139	0.004120	-0.078889	-0.021515	
-0.016022	0.002899	-0.019379	-0.020599	
-0.004425	0.001678	0.077058	-0.010529	
0.002594	0.003815	0.069123	0.000153	
-0.005951	0.004730	-0.272678	0.004120	
-0.003815	0.009308	-0.054780	0.020599	
-0.012360	0.001068	-0.046540	0.001068	
-0.005951	0.012360	0.122225	-0.018463	
-0.013275	0.008698	0.296788	-0.014496	
-0.011444	0.013885	-0.102083	0.005341	
-0.012360	0.004730	-0.100863	0.000458	
0.000153	0.012360	-0.099337	0.001678	
-0.001678	0.013275	0.109102	0.002899	
-0.002289	0.013885	0.276646	0.001984	
-0.003204	0.008698	0.169833	-0.007477	
-0.001068	0.005951	0.044709	-0.009613	
-0.000763	0.007782	0.018463	-0.005341	
-0.009003	0.006561	-0.075532	-0.004120	
-0.007782	0.005646	-0.054780	-0.016327	
-0.001068	0.010223	0.022125	-0.029449	
-0.001678	0.009003	-0.109102	-0.032197	
-0.010834	0.004120	-0.192111	-0.025177	
-0.008087	0.004120	-0.015411	0.006256	
-0.011444	-0.003815	0.213473	0.004120	
-0.007782	0.008087	0.235447	0.006561	
-0.015106	-0.003204	-0.303502	-0.001678	
-0.006866	0.003815	-0.417945	0.008698	
-0.005646	0.003204	-0.170138	0.006256	
-0.002289	0.009308	0.170749	0.003815	
-0.007172	0.003815	0.368505	-0.010529	
-0.000763	0.005646	0.190280	-0.015411	
-0.002899	0.005035	0.083772	-0.021515	
-0.005951	0.000458	-0.078584	-0.020599	
-0.009308	0.003815	-0.176852	-0.005951	
-0.003510	0.000153	-0.044099	-0.000153	
0.002289	-0.001373	0.227207	0.002899	
-0.001678	-0.001068	0.088655	-0.011749	
-0.003204	0.006256	-0.147554	-0.009003	
-0.010223	0.003204	-0.064851	-0.015106	
-0.005646	0.004425	-0.059968	-0.016022	
-0.005951	0.005951	0.075532	-0.009308	
-0.004120	0.004730	0.214084	-0.011749	
-0.002289	0.000763	-0.055696	-0.011749	
0.000153	0.005951	-0.288854	-0.004425	
-0.005646	0.004120	-0.107271	-0.012360	
-0.005341	0.003204	0.045320	-0.009613	
-0.004120	0.003204	0.118258	-0.014191	
-0.007477	-0.000153	0.097506	-0.014191	
-0.000763	0.003815	0.067597	-0.006866	
-0.001678	0.008087	0.085908	-0.004425	
0.001068	0.012970	0.038911	-0.008392	
0.002899	0.011139	0.011139	-0.014496	
0.002594	0.007172	0.027313	-0.018158	
-0.003204	0.002289	-0.033418	-0.021820	
-0.000153	0.005035	-0.066987	-0.004425	
0.000763	0.003204	0.011139	0.002899	
-0.002289	0.004425	0.065156	0.019379	
-0.009308	0.001678	-0.081025	0.019989	
-0.009308	0.004120	-0.128328	0.014801	
-0.009613	0.004425	0.075532	-0.000763	
-0.010223	0.004730	0.222935	-0.006256	
-0.019684	-0.003204	0.095369	-0.011749	
-0.017853	-0.000153	-0.079194	-0.013275	
-0.009918	0.001678	-0.097200	-0.016327	
-0.001984	0.001068	0.022125	-0.009003	
-0.005951	-0.003510	0.036775	-0.009918	
-0.001984	-0.003815	0.057221	0.007172	
0.001678	-0.002289	0.090791	-0.006256	
0.008698	0.003815	0.151827	-0.022125	
0.009918	0.006256	0.025177	-0.019379	
0.006256	0.007172	-0.084992	-0.010529	
0.010529	0.007782	-0.338902	-0.004425	
-0.007172	0.003204	-0.585183	-0.007782	
-0.008392	0.007782	-0.453956	0.001068	
-0.023956	-0.006256	0.228428	-0.003204	
-0.024872	-0.004425	0.643167	0.003204	
-0.025177	-0.004120	0.262608	0.004120	
-0.015106	-0.001068	0.028839	0.003815	
-0.016022	-0.002289	0.120394	-0.010529	
-0.006866	0.010223	0.126192	-0.015717	
-0.010834	0.002594	0.095980	-0.023651	
-0.001068	0.010223	0.077058	-0.016632	
0.002289	0.006256	0.043489	-0.023346	
0.007782	0.014191	0.031281	-0.021210	
0.002899	0.012360	0.004120	-0.021515	
0.005035	0.009308	-0.015411	-0.022430	
0.005951	0.012970	-0.095064	-0.015411	
-0.004425	0.008392	-0.193027	-0.001984	
-0.008087	0.002289	0.042268	0.019989	
-0.011749	0.002289	0.158237	0.027008	
-0.012054	0.000153	-0.103914	0.016327	
-0.009613	-0.004120	-0.050508	-0.000153	
-0.003204	-0.004120	0.100863	0.001068	
-0.013275	-0.003510	-0.001984	-0.007477	
-0.002289	0.008698	-0.120394	-0.006256	
-0.008087	0.001678	-0.204013	-0.017548	
-0.001678	0.001984	-0.112154	-0.014191	
-0.009308	-0.008087	0.167087	-0.015411	
-0.011139	-0.000763	0.019989	-0.011444	
-0.013580	-0.006866	-0.025787	-0.008392	
-0.008087	-0.008392	0.103609	-0.004120	
-0.007477	-0.001373	0.092622	-0.003204	
-0.007477	-0.001068	-0.012054	-0.005646	
-0.002289	0.001678	-0.052644	-0.010529	
-0.004120	-0.000763	0.036164	-0.016327	
-0.001068	0.004120	-0.014191	-0.010223	
-0.010834	-0.001373	-0.084382	-0.016022	
-0.003204	0.005035	-0.038301	-0.003510	
-0.009003	-0.001373	0.097200	-0.011139	
-0.003510	0.004120	0.086213	-0.011444	
0.002899	-0.001068	-0.280918	-0.014191	
-0.003510	-0.004120	-0.147249	0.002289	
-0.013885	-0.003510	0.241245	0.006561	
-0.006866	0.002289	0.136263	0.008698	
-0.007782	-0.004120	0.002594	0.000153	
-0.008087	0.004120	0.159457	0.002899	
-0.006866	0.002899	-0.019989	-0.000763	
-0.004425	0.000763	0.044404	0.000763	
-0.012970	-0.004425	0.109102	-0.006866	
-0.012360	-0.002289	0.082551	-0.015411	
-0.004425	0.007172	-0.019684	-0.009918	
-0.005646	0.002899	0.022736	-0.005035	
0.002594	0.008392	-0.013580	-0.008392	
-0.005035	0.005951	0.009003	-0.022736	
0.008087	0.018768	0.160678	-0.016327	
0.002594	0.005646	0.211947	-0.017242	
0.004730	0.008087	0.100252	-0.010529	
-0.006256	0.002594	-0.213473	-0.019989	
0.009003	0.016022	-0.193637	-0.007477	
0.004120	0.010223	-0.536050	-0.009918	
0.004425	0.016327	-0.644083	0.006866	
-0.012054	0.004425	0.087129	0.003204	
-0.015717	0.004730	0.497292	0.008392	
-0.016937	0.008698	0.142061	-0.001678	
-0.006256	0.014191	0.005035	-0.002289	
-0.011749	0.005646	0.178378	-0.002289	
-0.011139	0.008698	0.034028	-0.005646	
-0.009308	0.007172	0.067292	-0.010529	
-0.011139	0.009003	0.131075	-0.016327	
0.003204	0.012360	0.019073	-0.011444	
-0.002289	0.003815	-0.020294	-0.013580	
-0.003204	0.003815	0.119783	-0.009613	
-0.010834	-0.004120	0.251316	-0.012054	
-0.004120	0.004730	0.077973	-0.000763	
-0.005646	0.000153	-0.042268	-0.012054	
0.002594	0.001984	-0.046845	-0.002899	
-0.008392	-0.009003	-0.048371	-0.009308	
-0.005035	-0.009308	0.157931	-0.001373	
-0.009613	-0.013580	0.100863	0.006561	
-0.004120	-0.012970	-0.302587	0.008087	
-0.008087	-0.013885	-0.590371	-0.009003	
-0.009003	-0.014191	-0.382238	-0.010529	
-0.011139	-0.009308	-0.124361	-0.009918	
-0.010834	-0.008392	0.205844	-0.009003	
-0.004425	-0.001068	0.497597	-0.011749	
-0.012970	0.000153	0.245823	-0.019073	
-0.005951	0.010834	0.097506	-0.009918	
-0.002289	0.006256	0.044099	-0.010223	
-0.000763	0.012360	0.048982	-0.002289	
-0.008087	0.009308	-0.157931	-0.017242	
-0.000763	0.016937	-0.133211	-0.013580	
-0.006866	0.009308	0.123446	-0.019379	
-0.000763	0.011749	0.182956	0.001678	
-0.008087	0.003815	0.164950	0.003815	
-0.002289	0.002899	-0.021210	-0.007172	
-0.005951	-0.006866	-0.117342	-0.003204	
-0.005341	-0.012054	-0.131685	0.005951	
-0.005646	-0.015717	-0.189364	-0.010529	
-0.001678	-0.008087	-0.204928	-0.016327	
-0.006256	-0.008392	-0.207675	-0.013580	
-0.005035	-0.009308	0.040132	-0.003204	
-0.005646	-0.007477	0.223240	-0.012970	
-0.001984	-0.006256	0.306249	-0.022125	
0.005951	0.008087	0.254673	-0.012360	
0.001984	0.004425	0.042268	-0.017548	
0.000153	0.006561	0.053864	-0.010529	
0.001068	0.011749	-0.054780	-0.009308	
0.004120	0.012054	-0.173800	-0.003204	
-0.008392	0.006561	-0.004425	-0.002899	
-0.003204	0.008392	0.085908	-0.001984	
-0.007782	-0.004120	0.080720	-0.026398	
0.000153	0.000153	-0.052033	-0.021515	
-0.012970	-0.003510	-0.220188	-0.016327	
-0.001678	-0.003510	-0.306554	0.001678	
0.005035	0.005646	-0.185702	0.003815	
-0.001373	0.014496	0.031587	-0.014191	
0.000763	0.013885	0.229649	-0.027618	
-0.001984	0.007782	0.254978	-0.015106	
-0.001984	0.012054	0.090791	0.008087	
-0.005951	0.010223	-0.024261	0.006866	
-0.008087	0.004425	0.003204	0.004120	
-0.017548	-0.006256	0.146029	0.004120	
-0.020905	-0.004120	0.204013	0.005035	
-0.020905	-0.005035	0.064546	0.003204	
-0.015411	-0.000153	0.027313	0.000153	
-0.013580	0.000153	0.067903	-0.009308	
-0.011139	0.006256	-0.029144	-0.007172	
-0.012360	0.009918	-0.170749	-0.005646	
-0.005035	0.017242	-0.127413	-0.005035	
-0.010834	0.012970	-0.074006	-0.010223	
-0.005341	0.011749	-0.085908	-0.015106	
-0.004120	0.014191	-0.089875	-0.004120	
-0.003204	0.017853	-0.154573	0.002899	
0.000153	0.017853	0.004120	0.005951	
-0.001068	0.014496	0.232395	-0.000763	
-0.001678	0.011749	0.066377	-0.001984	
0.001068	0.011749	-0.064240	-0.009613	
0.007782	0.014801	0.079194	-0.004425	
-0.001678	0.007172	0.245518	-0.005646	
0.002899	0.013885	0.064546	-0.005035	
-0.001678	0.011749	-0.115206	-0.012054	
0.005951	0.019073	-0.112459	-0.003204	
-0.002899	0.010529	0.019379	-0.016632	
-0.008087	0.011139	0.314488	-0.019379	
-0.018158	-0.005341	0.286107	-0.023651	
-0.009308	0.000763	-0.326390	0.001068	
-0.007782	-0.005951	-0.314183	0.008698	
-0.005646	-0.008392	0.045625	0.000458	
-0.006256	-0.007172	0.026398	-0.019684	
-0.005341	-0.001068	-0.271152	-0.023346	
-0.001678	0.003815	0.010223	-0.005341	
-0.012360	0.002899	0.132601	-0.015106	
-0.009003	0.004120	0.064546	-0.013580	
-0.013580	-0.006866	0.000153	-0.018463	
-0.009003	-0.001678	-0.146639	-0.004120	
-0.010834	-0.004120	0.071259	0.002289	
-0.002899	0.002899	0.234531	0.008392	
-0.001373	0.005951	0.179904	0.006866	
0.009003	0.010223	-0.072175	0.005035	
0.005035	0.005646	-0.074922	-0.005646	
0.003204	0.004425	0.103304	-0.007477	
0.000763	0.005951	0.177157	-0.013885	
-0.001984	0.004425	0.159762	-0.017548	
-0.019379	0.000153	0.065461	-0.021515	
-0.020294	-0.008087	0.006866	-0.015717	
-0.012360	-0.012054	-0.188144	-0.005646	
-0.010223	-0.011444	-0.563516	-0.002289	
-0.006866	-0.007477	-0.416724	-0.000763	
-0.013275	-0.009308	0.070954	-0.001068	
-0.005035	-0.002899	0.206454	-0.007172	
-0.004425	-0.005035	0.328221	-0.011444	
-0.000763	-0.001068	-0.155184	-0.009918	
-0.001373	-0.008392	-0.251926	-0.004425	
-0.000153	-0.002289	0.119173	0.018158	
0.001068	-0.011139	0.419471	0.008392	
0.007782	-0.005646	0.430762	0.008392	
-0.007782	-0.007172	-0.091706	0.009308	
-0.011749	-0.007172	-0.133821	0.005035	
-0.010834	-0.002899	0.063935	-0.013580	
-0.010223	0.007782	0.030975	-0.018463	
-0.009308	0.000763	0.004120	-0.017548	
-0.003204	0.000763	-0.000763	-0.019073	
-0.001678	0.006561	0.004730	-0.015717	
0.001984	0.012360	0.034333	-0.011749	
0.004730	0.016632	0.023346	-0.004120	
-0.001678	0.018768	-0.101473	-0.003204	
0.002594	0.026093	-0.011749	0.006866	
-0.001984	0.016632	0.016937	0.008698	
0.001068	0.022125	-0.094149	0.000763	
-0.008392	0.006561	-0.141451	-0.015717	
-0.001068	0.011749	-0.044709	-0.001373	
-0.007782	0.002899	-0.003815	-0.010223	
-0.005951	0.002289	0.092011	-0.006256	
-0.005951	-0.005951	0.110323	-0.014191	
-0.005341	0.003815	0.128633	-0.009918	
-0.008087	0.002899	-0.008392	-0.011444	
-0.009003	0.004425	-0.033113	-0.011444	
-0.007782	-0.002289	0.069123	-0.013885	
-0.003204	-0.009003	-0.192416	-0.018463	
-0.001068	-0.000153	0.043183	0.000153	
-0.005951	-0.003510	0.162204	0.014191	
-0.001678	0.000763	-0.070649	0.008698	
-0.009918	-0.005951	-0.034638	-0.003204	
0.001068	0.001678	0.160678	-0.004425	
-0.005035	-0.003815	0.058442	-0.007477	
-0.008392	-0.003510	-0.087129	-0.013275	
-0.005341	0.000153	0.016327	-0.023651	
-0.003510	0.004425	0.012970	-0.017853	
-0.007782	0.000153	-0.067597	-0.013580	
-0.007782	-0.003815	0.015411	-0.005341	
-0.010223	-0.005341	0.138094	-0.017242	
-0.001678	0.004120	0.053559	-0.019989	
-0.004425	0.002899	-0.325475	-0.018463	
-0.001068	0.008087	-0.177463	0.008087	
-0.003510	0.003204	0.050202	-0.000763	
-0.002899	0.003815	0.063935	-0.013275	
-0.003510	0.006866	0.114290	-0.005951	
-0.009003	0.006256	0.036469	-0.007477	
-0.007782	0.006561	0.097506	-0.008392	
-0.005035	0.006561	0.173800	-0.005951	
0.002899	0.009003	0.137178	-0.008392	
-0.007782	0.008698	0.030060	-0.016022	
0.000458	0.016632	-0.023041	-0.007172	
-0.008087	0.008087	-0.047456	-0.017242	
0.001984	0.012360	-0.024567	-0.004120	
-0.001984	0.007782	0.005035	-0.001678	
-0.013580	0.004425	-0.127718	-0.000763	
-0.012970	-0.004120	-0.133821	-0.000763	
-0.011749	-0.006256	0.209201	-0.002899	
-0.017548	-0.009003	0.151522	-0.006256	
-0.011444	-0.007172	-0.025482	-0.007782	
-0.006866	-0.005341	-0.098726	-0.002289	
-0.005646	0.003204	-0.088960	-0.000763	
-0.001984	0.001068	-0.080110	-0.001373	
-0.003510	-0.003204	-0.073091	0.001678	
-0.009613	0.000763	0.013275	0.005035	
-0.012360	-0.000763	-0.009918	-0.004425	
-0.003204	0.010223	-0.048371	-0.009918	
-0.004120	0.008698	-0.002899	-0.014191	
-0.005035	0.004425	-0.035554	-0.019073	
-0.007477	0.004425	-0.024567	-0.025177	
-0.006866	0.002594	-0.039826	-0.011444	
-0.007782	0.001678	-0.036775	-0.005951	
0.003815	0.011749	0.066682	-0.010223	
-0.005951	0.004730	-0.016022	-0.022125	
-0.002899	0.010834	-0.162814	-0.005646	
-0.006866	0.014801	0.095980	-0.006866	
-0.004425	0.026398	0.351416	-0.005341	
-0.004425	0.023346	0.060578	-0.005035	
-0.003815	0.020599	0.072480	0.006256	
-0.003815	0.018768	0.182956	0.009918	
-0.000153	0.018158	0.142366	-0.002289	
-0.002899	0.016327	-0.103304	-0.000763	
-0.001678	0.014801	-0.116426	0.005951	
0.001984	0.024872	0.127108	0.001678	
-0.007782	0.016022	0.197299	-0.017853	
0.002899	0.014801	0.019379	-0.007172	
0.000458	0.000153	-0.189670	-0.006256	
0.009613	0.000458	-0.054475	-0.016327	
0.003815	-0.001984	-0.007172	-0.026093	
0.008392	-0.002289	-0.209201	-0.014191	
0.006561	-0.010834	-0.064240	-0.019989	
0.002289	-0.009308	0.148470	-0.015106	
-0.006256	-0.011444	0.047456	-0.005341	
-0.007172	-0.011139	-0.050202	0.004120	
-0.006256	-0.007782	0.042573	0.010834	
-0.003204	0.002899	0.157931	0.008392	
-0.011139	-0.005035	0.116426	-0.009918	
-0.014191	-0.005341	0.026093	-0.021515	
-0.011749	-0.001373	-0.139620	-0.020294	
-0.010834	-0.009308	-0.076753	-0.006256	
-0.012360	-0.013885	0.267796	0.006256	
-0.012360	-0.017853	0.103609	-0.014496	
-0.010834	-0.009918	-0.056306	-0.033418	
-0.016937	-0.009003	-0.164950	-0.027618	
-0.005341	-0.005341	-0.280308	0.004120	
-0.009613	-0.015106	-0.280613	0.008698	
-0.007477	-0.001984	-0.105440	0.017242	
-0.019684	-0.018463	0.060884	-0.004425	
-0.010223	-0.013580	0.182345	-0.001373	
-0.007477	-0.011444	0.102388	-0.002899	
-0.004120	-0.004120	0.142366	-0.002289	
-0.007782	-0.007782	0.098726	-0.004120	
-0.007172	-0.002899	-0.095064	0.003204	
-0.005951	-0.003204	-0.003510	-0.003815	
-0.003815	-0.001984	0.287328	-0.005341	
-0.001678	0.009308	0.198825	0.002594	
-0.009613	0.001678	0.050202	-0.003204	
-0.003510	0.005951	0.128633	-0.004120	
-0.009613	0.003815	-0.025787	-0.016327	
-0.008087	0.009003	-0.313573	-0.006866	
0.000458	0.011749	-0.242466	-0.008087	
-0.002289	0.013885	-0.128939	-0.004120	
-0.010223	0.008087	-0.099337	-0.014496	
-0.001984	0.011749	-0.002899	-0.017548	
-0.012054	0.011749	0.160678	-0.026398	
-0.009003	0.013275	0.127718	-0.010529	
-0.005035	0.002289	0.115511	0.000153	
-0.001068	0.001068	0.014191	0.005341	
0.003815	0.003815	-0.062409	-0.002899	
0.003815	0.004120	0.000153	-0.010223	
0.003815	0.003815	0.070649	-0.004120	
0.002289	0.001984	0.116121	0.002594	
0.002289	0.016327	0.101473	-0.001984	
0.005646	0.016022	0.024567	-0.007172	
0.006866	0.016022	-0.001068	-0.009003	
-0.001068	0.015106	0.028534	-0.012970	
-0.001678	0.014496	-0.011139	-0.007782	
-0.009918	0.007782	0.031281	-0.002899	
-0.005646	0.012360	0.109713	0.007782	
-0.013275	0.005646	-0.104219	-0.015106	
-0.004425	0.013275	-0.365149	-0.005646	
-0.009613	0.002899	-0.238804	-0.005646	
-0.003204	0.011139	0.040437	-0.003815	
-0.001678	0.012360	0.047456	-0.013275	
-0.001373	0.011749	-0.115511	-0.009003	
-0.006256	0.007782	-0.011444	-0.014191	
-0.000763	0.010834	0.121614	-0.015106	
-0.001373	0.006561	0.107882	-0.019989	
-0.005341	0.002899	-0.010834	-0.017242	
-0.005951	0.001068	0.114901	0.002899	
-0.014801	-0.012970	0.234531	-0.002899	
-0.012054	-0.003815	0.020294	0.008087	
-0.015411	-0.005035	-0.281835	-0.000153	
-0.012054	-0.002899	0.050508	0.004120	
-0.009918	-0.000153	0.236973	-0.006256	
-0.000763	0.007172	0.007782	-0.005035	
-0.008087	-0.000763	-0.082551	-0.010223	
-0.000153	0.005951	0.003815	-0.008087	
-0.005341	0.002289	0.054475	-0.022125	
0.001678	0.009003	0.087434	-0.017242	
-0.005951	0.003204	0.034638	-0.019073	
-0.005341	0.005951	0.016327	-0.014191	
-0.005341	-0.001373	0.005341	-0.013275	
-0.013885	-0.002899	0.068513	-0.005951	
-0.009613	0.001678	0.205234	-0.007477	
-0.011749	-0.006256	-0.053559	-0.016327	
-0.003204	0.000153	-0.248264	-0.021820	
-0.005035	0.000458	-0.229343	-0.013275	
-0.003510	0.004425	-0.261997	0.007782	
-0.006866	0.002899	-0.057527	0.022430	
0.001068	0.010223	0.297399	0.020294	
-0.005951	0.002289	0.054780	0.001984	
-0.005035	0.008392	-0.088044	0.010834	
-0.005341	0.005951	0.154268	0.008087	
0.001678	0.015106	0.130465	0.010834	
-0.001068	0.007172	0.171054	-0.015106	
0.009003	0.016327	0.163730	-0.025787	
0.007782	0.016022	-0.011749	-0.028229	
-0.001984	0.004425	-0.143892	-0.016632	
-0.001678	0.007172	0.007782	-0.007477	
-0.002899	0.009918	0.067597	-0.010223	
-0.003510	0.003815	-0.138399	-0.016022	
-0.009308	-0.005646	-0.143587	0.000458	
-0.014191	-0.011444	-0.099337	0.016632	
-0.023041	-0.019684	-0.193027	-0.010529	
-0.014801	-0.008087	0.144808	-0.012054	
-0.013275	-0.001678	0.467383	0.002899	
-0.001678	0.004120	0.008698	0.002899	
-0.004425	0.003815	-0.196994	-0.003510	
-0.002899	0.005951	0.002899	-0.000763	
-0.013885	-0.007782	0.232090	-0.019989	
-0.001678	0.003204	0.222935	-0.015106	
-0.005341	-0.001373	0.009918	-0.023956	
-0.005341	0.000153	-0.003204	-0.016632	
-0.006256	-0.004425	-0.213168	-0.022736	
-0.001068	0.006561	-0.355078	-0.011749	
-0.010223	-0.003815	-0.155184	-0.004425	
-0.014191	-0.000153	0.186007	0.000153	
-0.014801	0.002289	0.088044	-0.010223	
-0.014801	-0.001373	-0.054475	-0.016022	
-0.009003	0.006256	-0.054780	0.005951	
-0.013275	-0.001984	-0.002899	0.002594	
-0.002289	0.000763	0.127718	-0.001068	
-0.008392	-0.007172	0.167087	-0.011444	
-0.000153	0.004425	-0.184176	-0.009613	
-0.001373	0.004425	-0.173800	-0.008392	
0.005646	0.010223	-0.033113	0.012360	
-0.002899	0.005951	-0.033113	0.000153	
0.004120	0.006561	0.056306	-0.000153	
-0.001373	0.002289	0.243382	-0.001373	
-0.001678	0.006561	0.244907	-0.003510	
-0.004120	0.002289	0.208285	-0.008392	
0.000763	0.004120	0.236973	-0.009918	
-0.000763	0.001678	-0.064240	-0.013885	
-0.001068	0.001984	-0.408179	-0.014496	
-0.000763	0.001678	-0.195773	-0.002899	
-0.002899	-0.005035	0.136568	0.000153	
-0.001068	-0.001984	0.084687	-0.002289	
-0.009003	0.000763	-0.104830	-0.005646	
-0.004425	0.005646	-0.047761	-0.003510	
-0.005951	0.003204	-0.003204	-0.011749	
-0.003815	0.010223	0.011139	-0.011749	
-0.009003	0.004425	-0.005951	-0.025177	
0.001068	0.010529	0.015411	-0.021820	
-0.000153	0.007782	0.029144	-0.020599	
0.002594	0.005951	-0.020294	-0.014496	
-0.001068	0.003204	-0.124361	-0.012970	
-0.005951	0.004730	-0.171054	-0.013580	
-0.011444	-0.006866	-0.067597	-0.020599	
-0.011139	-0.004120	0.214389	-0.013580	
-0.008087	-0.001068	0.315099	-0.018463	
-0.008087	0.001678	-0.044709	-0.010529	
-0.011749	-0.001984	-0.141451	0.012054	
-0.004425	0.002899	0.080110	0.029755	
0.000153	0.005951	-0.027008	0.012970	
-0.001678	0.008698	0.074006	-0.003204	
-0.003815	0.008087	0.068818	-0.015106	
-0.008392	0.001678	0.133211	-0.017242	
-0.001068	0.004425	0.078584	-0.009613	
-0.009308	0.005951	-0.051423	-0.013275	
-0.000153	0.010223	-0.001068	0.001068	
-0.006866	0.000763	0.017242	-0.000763	
-0.002289	0.011139	0.009003	0.005951	
-0.012360	0.008698	-0.084687	-0.005951	
-0.005035	0.013885	-0.027924	-0.005035	
-0.004120	0.014496	0.213168	-0.009308	
-0.006256	0.009308	0.028534	-0.007172	
-0.007172	0.001984	-0.176242	-0.010223	
-0.008392	-0.005341	-0.036164	-0.011139	
-0.005951	-0.005035	0.142672	-0.001678	
0.009918	0.007172	0.103609	-0.000763	
0.019684	0.014801	-0.138704	-0.000763	
0.008392	0.011749	-0.260471	0.009308	
-0.002289	0.004425	0.028839	0.019989	
-0.016937	-0.003815	0.258640	0.001068	
-0.012054	0.004120	0.307164	-0.003510	
-0.018463	-0.001984	-0.060273	-0.021820	
-0.026398	-0.009308	-0.290685	-0.016327	
-0.031892	-0.016327	-0.102999	-0.016022	
-0.011444	0.007172	0.089570	-0.006256	
-0.010834	-0.009308	-0.040437	-0.019379	
-0.002289	-0.001373	0.079804	-0.021210	
-0.006256	-0.002899	0.010223	-0.025177	
-0.001373	0.003815	-0.288243	-0.019379	
-0.006256	-0.002899	0.073701	-0.013885	
-0.002899	-0.002289	0.402075	0.006866	
0.006561	0.004120	0.185702	0.011139	
-0.001984	0.000153	0.094759	-0.002899	
0.000763	0.007782	-0.034333	0.005341	
-0.003510	0.004120	-0.193637	0.007172	
-0.001678	0.006561	-0.151827	-0.002289	
-0.005035	-0.001068	-0.005341	-0.025482	
0.005035	0.006561	0.062409	-0.024261	
-0.002899	-0.002899	-0.068818	-0.019379	
0.001984	0.000458	0.172580	-0.001678	
-0.003815	-0.000153	0.271458	-0.005951	
-0.003510	-0.001373	-0.081635	-0.011444	
0.001984	0.001678	-0.227818	-0.016327	
0.002289	0.001678	-0.302587	-0.015106	
-0.001984	0.004120	-0.115511	-0.022736	
-0.005951	0.000458	0.127718	-0.011749	
-0.008087	-0.001068	0.208285	0.010834	
-0.013580	-0.003510	-0.036469	0.006561	
-0.011749	0.000153	-0.178683	0.000763	
-0.016022	0.003815	0.168918	0.000763	
-0.011139	0.013885	0.337682	0.010223	
-0.012360	0.010834	0.125277	0.006561	
-0.001984	0.016327	0.028229	0.005951	
-0.009308	0.004120	0.001984	0.000763	
-0.003815	0.013275	-0.095980	-0.003510	
-0.006866	0.012054	-0.078279	-0.019684	
-0.005646	0.012054	-0.015717	-0.023346	
-0.007477	0.010834	-0.291295	-0.026398	
-0.000763	0.012360	-0.394140	-0.021210	
-0.000763	0.007172	-0.085908	-0.011139	
0.000458	0.010223	0.261997	0.004120	
-0.001373	0.005035	0.217441	-0.004425	
0.000153	0.011749	0.037080	-0.007172	
-0.005341	0.009003	0.208285	-0.011749	
-0.009918	0.006561	0.119478	-0.003510	
-0.008392	0.004425	0.090791	0.002289	
-0.008087	-0.005341	0.076447	0.001678	
0.001984	0.004730	-0.048066	0.002899	
0.000763	0.004425	-0.106356	-0.012054	
0.002594	0.002289	-0.150911	-0.016327	
-0.005035	-0.001373	-0.037995	-0.024261	
-0.005341	0.003204	0.123140	-0.027618	
-0.009308	0.004120	0.164950	-0.019379	
-0.011139	0.004425	-0.218356	-0.004425	
-0.005951	-0.001984	-0.445106	-0.005646	
-0.001678	-0.005646	-0.210422	0.003204	
-0.005341	-0.011749	0.168307	0.001678	
-0.000763	-0.004425	0.393835	0.004120	
-0.005646	-0.009918	0.270542	0.001068	
-0.005951	-0.003204	0.070649	0.005035	
-0.007477	0.000153	0.171664	-0.002899	
-0.011749	-0.001373	0.244907	-0.015106	
-0.008392	-0.000153	0.150911	-0.006256	
-0.008392	-0.003204	0.119783	-0.001984	
-0.007782	-0.000763	-0.125277	-0.001373	
-0.010834	0.000153	-0.331273	-0.009613	
-0.003204	0.008392	-0.269627	-0.013580	
-0.004425	0.008698	-0.183566	-0.017548	
0.001068	0.018158	-0.056306	-0.014496	
0.002899	0.011749	0.152132	-0.014191	
0.006866	0.012054	0.088044	-0.011139	
-0.002289	0.006561	-0.146639	-0.019684	
-0.006256	0.005646	-0.227207	-0.012970	
-0.009308	-0.003204	-0.231785	-0.006256	
-0.010223	-0.001984	-0.356909	0.005035	
-0.009308	-0.005951	-0.176242	-0.000153	
-0.010223	0.000153	0.188144	0.011444	
-0.005035	-0.008087	0.430457	0.012360	
-0.008087	-0.007782	0.424354	-0.000153	
-0.002289	-0.001678	0.139925	-0.005035	
-0.002289	0.003815	-0.017548	-0.009918	
0.002289	0.004425	-0.004425	-0.009003	
-0.005646	-0.002899	0.129244	-0.019989	
-0.004425	0.010529	0.124971	-0.012054	
-0.012360	-0.001373	-0.062409	-0.010529	
-0.011139	-0.006256	-0.029449	-0.011139	
-0.009613	-0.003815	0.029144	-0.022125	
-0.005951	-0.005646	0.002594	-0.031281	
-0.005646	-0.002899	-0.050202	-0.029755	
-0.005646	0.003815	-0.040742	-0.017853	
-0.011749	0.000153	0.004730	-0.010529	
-0.012360	-0.002899	0.115511	-0.001984	
-0.013885	-0.002289	0.257725	-0.002289	
-0.005035	0.005035	0.131380	0.010223	
-0.003204	0.004730	-0.125277	0.020905	
-0.013580	0.004120	-0.201266	0.016022	
-0.006866	0.006561	-0.046235	0.010834	
-0.003510	0.008087	-0.225376	-0.007172	
0.002289	0.010834	-0.261082	-0.017853	
-0.005646	0.005951	-0.063935	-0.028839	
0.002594	0.009308	0.080720	-0.019684	
-0.004120	0.000458	0.004120	-0.018463	
0.001984	0.007172	0.121309	-0.011444	
-0.005951	0.004120	0.258030	-0.005341	
0.000153	0.012054	0.053559	0.025482	
-0.006866	0.002289	-0.048371	0.016937	
0.000153	0.008392	0.210422	0.011444	
-0.000763	0.000153	0.240330	0.003815	
0.001984	0.003815	0.096895	0.000763	
-0.001373	0.009308	-0.022430	-0.007477	
-0.004120	0.008698	-0.024567	-0.020599	
-0.002289	0.012360	-0.080720	-0.024261	
-0.003510	0.010834	-0.179599	-0.022430	
-0.003815	0.013885	-0.035249	-0.014191	
-0.005951	0.007782	0.294957	-0.000153	
0.001984	0.009308	0.124971	-0.007172	
-0.002899	0.000458	-0.226597	-0.019379	
-0.001678	0.010834	-0.147554	-0.005035	
-0.011749	0.000153	-0.172580	-0.010529	
-0.011139	0.000458	-0.314488	-0.009613	
-0.013275	-0.003510	-0.106050	0.006256	
-0.007477	0.004425	0.201266	0.019379	
-0.005646	0.000153	0.269627	-0.000153	
-0.000763	0.004120	0.090791	-0.000763	
-0.009003	0.004425	0.027313	-0.003204	
-0.006866	0.001678	0.048676	-0.003510	
-0.013580	-0.004120	-0.013885	-0.010223	
-0.008087	-0.005951	-0.066377	-0.014496	
-0.007782	-0.005646	0.000153	-0.023956	
-0.009613	-0.011139	0.091706	-0.026398	
-0.009613	-0.010834	0.272068	-0.006866	
-0.011139	-0.009918	0.239719	-0.000763	
-0.008087	0.000153	0.122530	-0.005646	
-0.002899	0.002289	-0.189364	-0.012054	
-0.003815	0.001984	-0.317235	-0.007477	
-0.006866	0.006561	-0.305028	-0.005646	
-0.007477	0.011139	-0.099337	-0.005035	
-0.014191	0.007782	-0.005951	-0.010223	
-0.006256	0.016632	0.075837	-0.007172	
-0.008392	0.016022	0.068818	-0.015106	
-0.004425	0.020599	0.051728	-0.013580	
-0.007477	0.018768	0.048371	-0.024261	
0.002289	0.024567	0.030975	-0.020294	
0.003204	0.013885	-0.027008	-0.013275	
0.003204	0.008087	-0.051728	-0.005646	
-0.005646	0.004730	0.043183	-0.004425	
-0.019073	-0.007782	0.139620	-0.008392	
-0.013885	-0.008392	-0.055390	-0.000763	
-0.009918	-0.009613	-0.150911	0.009308	
-0.005951	-0.003204	-0.164035	0.002594	
-0.009613	-0.003815	-0.049287	-0.004425	
-0.008087	0.000458	0.079194	0.012360	
-0.013885	-0.003510	0.020599	0.000153	
0.000153	0.010834	0.051423	0.002289	
0.002289	0.004730	0.018463	-0.010529	
0.001678	0.011139	0.155489	-0.005035	
-0.003204	0.007172	0.320287	0.001068	
0.003815	0.009308	0.206454	0.001678	
0.009918	0.010529	0.051423	-0.013275	
0.005035	0.010223	0.065766	-0.017242	
-0.003510	0.008698	-0.037995	-0.022430	
-0.007477	0.003204	0.002594	-0.019989	
-0.011139	-0.005341	0.074616	-0.009613	
-0.005035	0.005035	0.045014	-0.002289	
0.006561	0.013275	0.005341	0.005035	
0.003204	0.009003	-0.221409	-0.000153	
0.009003	0.013885	-0.407874	0.002899	
-0.003815	0.001678	-0.320897	0.001068	
-0.006866	0.004425	-0.042573	0.018463	
-0.012054	-0.003815	0.189670	0.006866	
-0.001678	0.001678	0.192721	0.005951	
-0.007477	0.002899	0.212253	-0.001984	
-0.006866	0.002289	-0.056001	-0.013275	
-0.004120	0.002594	-0.001373	-0.013275	
-0.005341	-0.001984	0.027924	-0.017242	
0.000458	-0.004120	-0.078889	-0.017548	
0.006256	-0.006256	0.014191	-0.009003	
0.002289	-0.004120	0.081635	-0.008392	
-0.002899	-0.003815	0.076753	-0.015717	
0.001984	0.003204	0.114901	-0.012360	
-0.005341	-0.004120	-0.041657	-0.010223	
-0.004425	-0.001984	-0.117342	-0.003510	
-0.008087	-0.007172	0.060273	-0.007477	
-0.004425	-0.006256	-0.025787	-0.005035	
-0.008392	-0.001984	-0.004120	-0.013580	
-0.008087	-0.005646	0.116121	-0.009308	
-0.009308	-0.008087	0.119478	0.000153	
-0.005341	0.001984	0.235752	0.012360	
-0.012360	-0.002899	-0.047761	-0.003510	
-0.006256	0.002594	-0.291905	-0.012970	
-0.001678	0.000153	-0.060273	-0.022430	
0.004120	0.004730	0.142672	-0.025177	
-0.003815	0.002289	0.078584	-0.022736	
-0.005341	0.002899	-0.082551	-0.016632	
-0.010223	-0.001373	-0.162509	-0.016632	
-0.007172	-0.001068	-0.133821	-0.012054	
-0.007477	-0.003510	-0.104219	-0.020599	
-0.009003	-0.006256	-0.060884	-0.025482	
-0.007477	-0.000763	-0.014496	-0.007172	
-0.009308	0.000153	0.188754	0.008392	
-0.001984	0.007172	0.032197	0.008698	
-0.011139	-0.003510	-0.055390	-0.004120	
-0.006866	0.002289	-0.005646	0.005035	
-0.008392	0.004425	0.006256	0.001678	
-0.008087	0.008698	0.376745	-0.003204	
-0.013275	0.006256	0.269016	-0.007477	
-0.002289	0.016327	-0.109407	0.002899	
-0.009308	0.013885	-0.084077	-0.014191	
-0.005951	0.010529	-0.147249	-0.014496	
-0.005951	0.008698	-0.064546	-0.020294	
-0.005035	0.007172	0.001068	-0.016327	
-0.007477	0.004120	-0.020294	-0.013580	
-0.005951	0.004425	0.110323	-0.002899	
-0.005951	0.004120	0.198215	0.005035	
-0.007782	0.005951	0.057832	0.002594	
-0.001678	0.005646	-0.158542	0.005035	
-0.004425	0.001984	-0.148470	0.006866	
-0.001678	0.003204	0.054780	0.018158	
-0.004120	-0.005646	0.146334	0.008392	
0.005035	0.004120	0.133211	0.008698	
-0.003204	-0.001984	0.028229	-0.002899	
-0.003815	0.008698	-0.070344	-0.005035	
-0.001678	0.015106	0.008087	-0.005951	
0.002594	0.014496	0.070039	-0.005646	
0.004425	0.013885	0.061799	-0.019379	
-0.003510	0.013275	-0.013885	-0.019989	
-0.003510	0.016937	0.086823	-0.010223	
-0.005341	0.012054	0.142061	-0.010529	
-0.014801	0.011139	-0.060578	-0.003204	
-0.018158	0.009308	-0.241856	0.007172	
-0.017548	0.008392	-0.135347	0.013885	
-0.019989	-0.002289	-0.162814	0.004120	
-0.009003	-0.001068	-0.020294	-0.007172	
-0.006866	-0.000763	0.057832	-0.015411	
-0.006866	0.002899	0.059052	-0.014191	
-0.009918	-0.003815	0.016632	-0.019073	
-0.003815	-0.001678	0.075227	-0.015411	
-0.005341	-0.000763	0.079499	-0.017242	
0.000153	0.002594	-0.182956	-0.017548	
-0.007172	-0.000763	-0.176242	-0.026398	
0.003204	0.014496	-0.047761	-0.019684	
-0.003510	0.007172	-0.088655	-0.019684	
0.000763	0.009308	0.005341	-0.012054	
-0.005951	0.004425	0.047456	-0.007477	
0.000763	0.007172	0.162509	0.004120	
0.003204	0.004120	0.200961	-0.010223	
-0.001984	0.005035	0.116121	-0.018463	
-0.002899	0.006561	-0.058442	-0.007477	
-0.003815	0.004120	-0.066987	-0.004425	
-0.009308	0.007782	-0.023651	-0.000763	
-0.012360	0.000763	0.084687	0.005951	
-0.001678	0.004730	0.191806	0.002289	
-0.009003	-0.003510	0.081941	-0.010529	
-0.001068	0.003815	-0.074311	-0.001373	
-0.005951	-0.008392	-0.072175	-0.019379	
0.002594	0.002899	0.071565	-0.004120	
-0.009308	-0.001068	0.115511	-0.000153	
-0.003815	0.006561	0.165866	0.005035	
-0.009918	-0.001373	0.038606	-0.009003	
-0.008087	-0.004425	-0.132906	-0.013885	
-0.006866	-0.008392	-0.175632	-0.013580	
-0.002289	-0.006256	0.057221	-0.003510	
-0.005035	-0.001984	0.085298	-0.009003	
-0.003204	-0.003510	-0.001678	-0.009003	
0.003204	-0.000153	0.101473	-0.005341	
-0.000763	-0.006256	0.016327	-0.004120	
-0.002289	0.002289	-0.061494	0.002289	
-0.008392	-0.004120	0.001068	-0.005646	
-0.002289	0.011749	-0.087129	-0.009918	
-0.010834	0.003815	-0.054780	-0.016022	
-0.002289	0.011139	0.016327	-0.009308	
-0.009308	0.003815	-0.056001	-0.009918	
-0.006256	0.003815	-0.082246	0.001984	
-0.007782	0.001068	-0.044099	0.003204	
-0.003510	0.005951	-0.001678	0.012054	
-0.004425	-0.003510	-0.082856	0.002289	
0.004730	0.003815	-0.258945	-0.002899	
0.000763	0.001678	-0.272068	-0.005646	
-0.000153	0.003815	0.060884	0.011444	
-0.006866	0.003204	0.438697	0.004425	
-0.011139	0.000153	0.404211	-0.012970	
-0.016022	0.003815	-0.005646	-0.019073	
-0.013580	0.005951	0.012970	-0.013275	
-0.002899	0.006866	0.105440	-0.010223	
-0.002289	0.002289	-0.034333	-0.013885	
0.001068	0.004425	-0.019073	-0.014496	
-0.010223	-0.003815	-0.019684	-0.013885	
-0.000763	0.004425	-0.110933	0.009918	
-0.005646	-0.002289	0.053864	0.005035	
-0.005951	0.004425	0.269321	-0.004425	
-0.011444	-0.002899	0.279392	-0.027924	
-0.002899	-0.001068	0.077973	-0.028229	
-0.003815	-0.000153	-0.112764	-0.017853	
-0.004120	0.004425	0.127718	-0.003815	
-0.005035	0.004425	0.065461	-0.010529	
-0.005646	0.001984	-0.218051	-0.001678	
-0.002289	0.002594	-0.078584	0.000458	
0.000153	0.009308	-0.150911	-0.004120	
0.002594	0.006561	-0.199435	-0.011749	
-0.002899	0.002899	-0.132601	-0.015717	
0.002289	0.010223	0.084992	-0.007782	
-0.002289	0.007172	0.087434	-0.012360	
-0.002289	0.008698	-0.008087	-0.007477	
-0.008392	-0.004425	0.012665	-0.006866	
-0.013885	-0.005341	0.011749	-0.002289	
-0.018158	-0.001068	-0.003815	-0.009918	
-0.003815	0.005646	-0.001068	-0.009613	
-0.008087	-0.002289	0.051728	-0.017548	
-0.002289	0.010223	-0.000153	-0.006866	
-0.003204	0.007172	-0.075532	0.001068	
-0.003815	0.006561	-0.034028	0.005035	
-0.015106	-0.002289	0.081330	0.000153	
-0.017853	-0.001984	0.295262	0.006561	
-0.012054	-0.001068	0.142366	0.006866	
-0.015717	-0.001068	-0.115206	-0.002899	
-0.010834	0.003815	-0.034638	-0.010223	
-0.009613	0.004425	0.011749	-0.015717	
-0.006256	0.010834	-0.022430	-0.015106	
-0.003815	0.005035	-0.052644	-0.024261	
-0.000763	0.005951	-0.070039	-0.016022	
0.002899	0.004425	0.239719	-0.017548	
0.008087	0.010529	0.223240	-0.019073	
0.000153	0.005951	-0.341039	-0.016022	
0.003204	0.010834	-0.641031	0.006256	
0.002289	0.004120	-0.066072	0.018158	
-0.003815	-0.002289	0.232700	0.020905	
-0.001678	-0.005035	0.086823	0.006866	
-0.000763	0.005951	0.083161	0.005341	
-0.003815	0.002899	0.017853	0.002289	
-0.001984	0.000458	-0.008087	-0.002899	
-0.000153	0.001678	0.063325	0.000153	
-0.009613	-0.002289	0.153658	-0.007782	
-0.003815	0.004120	0.085908	-0.003204	
0.000153	0.008392	0.073701	-0.016022	
-0.000153	0.004425	0.018768	-0.020294	
-0.009918	0.001678	0.077363	-0.023956	
-0.006866	0.008087	0.169528	-0.012054	
-0.009308	0.008087	0.123751	-0.009003	
-0.006256	0.011749	0.055390	-0.002289	
-0.016937	0.008087	-0.057527	-0.012970	
-0.011139	0.016022	-0.385290	-0.017853	
-0.016937	0.009003	-0.175632	-0.027924	
-0.007477	0.012970	-0.104830	-0.016327	
-0.006256	0.008087	-0.100252	0.000153	
-0.007782	0.013275	-0.076142	0.005035	
-0.010834	0.012970	-0.033418	-0.002289	
-0.006866	0.011139	0.088044	-0.006256	
-0.006866	0.012665	0.357824	-0.019073	
-0.002899	0.012054	0.269932	-0.020294	
0.005951	0.006256	-0.101168	0.000153	
0.001678	0.003815	-0.333104	0.001984	
0.002289	0.008087	-0.038606	-0.000153	
-0.005951	0.000153	0.108187	-0.001373	
-0.005035	0.004120	0.239109	0.005951	
-0.008392	0.002289	0.312963	-0.005341	
-0.009613	0.007172	0.155794	-0.005646	
-0.015411	0.000153	-0.028229	-0.018463	
-0.010834	0.002899	-0.121004	-0.009613	
-0.010834	-0.000763	-0.112764	-0.008392	
0.000763	0.004120	-0.058137	-0.010223	
-0.002899	-0.005035	0.004120	-0.016327	
-0.003815	-0.007172	-0.085908	-0.015717	
-0.002289	-0.004120	-0.124056	-0.011749	
-0.001984	-0.003510	0.028229	-0.012054	
-0.002289	-0.004120	0.217441	-0.019073	
-0.004120	-0.006866	-0.007172	-0.023651	
-0.000763	-0.002289	-0.322728	-0.013580	
-0.007477	-0.011139	-0.295873	-0.009308	
-0.005951	-0.006866	-0.102999	-0.000763	
-0.011749	-0.012054	0.031281	0.009308	
-0.013275	-0.013580	0.287938	0.014801	
-0.010223	-0.008087	0.341649	0.001678	
-0.009003	0.000763	0.047151	0.000153	
-0.010834	-0.007477	0.162814	0.002899	
0.002289	-0.005951	0.197909	0.005035	
