NO_OF_SAMPLES	4800
TOT_NO_OF_CHAN	4
FREQUENCY	960.000000
NO_OF_CALC_CHAN	0
TIME_STAMP	2020-02-08, 11:54:14	228332.83923580
FIRST_SAMPLE	1
DESCRIPTION	--
DATA_INCLUDED	Analog
CHANNEL_NAMES	Vastus Lateralis	Vastus Medialis	Tibialis Anterior	Lateral Gastroc
CHANNEL_GAIN	1	1	1	1
FP_LOCATION
FP_CAL
FP_GAIN
Vastus Lateralis	Vastus Medialis	Tibialis Anterior	Lateral Gastroc	
-0.022125	-0.019684	-0.013275	0.366369	
-0.027313	-0.025787	-0.018463	0.085298	
-0.038301	-0.043183	0.021210	-0.001984	
-0.019989	-0.023346	0.055696	-0.124056	
-0.016022	-0.023041	0.049592	-0.129549	
-0.002289	-0.011444	0.058747	-0.010223	
-0.005951	-0.011139	0.047151	0.028839	
-0.005341	-0.008392	0.010529	-0.081025	
-0.003204	-0.015411	-0.017853	-0.222630	
-0.002289	-0.022125	-0.017548	-0.214694	
-0.009613	-0.027313	-0.008392	-0.247044	
-0.003815	-0.024261	-0.009308	-0.440833	
0.001678	-0.027008	0.004730	0.035249	
-0.005951	-0.037385	-0.011749	0.418555	
-0.000763	-0.035554	-0.010223	0.144808	
-0.000153	-0.039826	0.004730	0.352942	
0.007782	-0.030060	0.037690	0.782636	
0.000153	-0.035554	0.009918	0.371557	
0.002899	-0.024872	-0.033113	-0.027924	
-0.005951	-0.026093	-0.053559	-0.009003	
-0.000763	-0.011444	-0.021820	-0.076142	
-0.004120	-0.004120	-0.000763	-0.159762	
0.000458	0.012054	-0.001068	-0.405127	
0.000153	0.016937	0.024872	-0.684062	
0.005035	0.018463	0.065461	-0.410010	
-0.001068	0.016022	0.056611	0.015106	
0.000763	0.030975	0.021210	-0.150301	
0.003815	0.044099	0.014801	0.075837	
-0.009613	0.038911	0.006561	0.387732	
-0.009613	0.037385	-0.000153	0.189670	
-0.005646	0.034638	0.010529	-0.033723	
0.002289	0.041047	0.037080	0.052644	
-0.004425	0.031281	0.023956	0.195773	
-0.003815	0.034944	0.004425	0.008698	
-0.007477	0.021820	-0.009613	-0.274815	
0.003204	0.027924	0.004120	-0.242466	
-0.001678	0.026093	-0.009613	-0.129854	
-0.004120	0.016022	-0.003510	0.084077	
-0.001373	0.005646	0.028229	0.027313	
0.005035	0.009308	0.027008	0.043183	
0.002289	0.007782	0.023346	0.323949	
0.009918	0.014496	0.002899	0.344091	
0.000153	0.006866	-0.017548	-0.164035	
0.001678	0.012054	-0.001678	-0.391088	
-0.003510	0.014801	0.030670	-0.455787	
-0.006256	0.008087	0.019073	-0.401770	
-0.001678	0.002594	0.021515	-0.120089	
-0.001678	0.000153	0.028839	0.330358	
-0.001984	0.000763	0.021210	0.591592	
-0.007172	-0.007172	0.011749	0.364843	
-0.010223	-0.010223	-0.000763	0.134737	
-0.021820	-0.017548	-0.016327	0.058747	
-0.009613	-0.008087	-0.019684	-0.009308	
-0.012360	-0.007172	-0.013885	-0.040742	
-0.001373	0.004425	0.009003	-0.063325	
-0.003815	-0.002899	0.004730	-0.081025	
-0.003204	0.000763	0.021210	-0.078279	
-0.011444	-0.011444	0.010223	-0.092317	
-0.006866	-0.004120	0.008698	-0.084687	
-0.008392	-0.009003	0.000153	-0.083161	
-0.010834	-0.015717	0.000153	-0.087129	
-0.011444	-0.012360	0.020599	-0.069428	
-0.009003	-0.008392	0.011139	-0.067292	
-0.008392	-0.004425	0.001678	-0.067292	
-0.009308	-0.007172	-0.003510	-0.064546	
-0.001678	0.000763	0.005035	-0.052033	
-0.007172	0.002594	0.002594	-0.046845	
0.002289	0.007172	0.005341	-0.034638	
-0.003204	0.003815	-0.005646	-0.039521	
0.001984	0.017853	0.008698	-0.019684	
-0.005646	0.010529	0.017853	-0.016632	
-0.009308	0.017242	0.013275	-0.012054	
-0.007477	0.018158	0.005951	-0.013275	
-0.001678	0.018768	0.005341	-0.003204	
-0.003204	0.016022	0.010223	-0.000153	
0.000458	0.021210	0.012665	0.006561	
0.001984	0.016022	0.014801	0.003204	
-0.002289	0.012360	0.017853	0.006561	
-0.002899	0.012665	0.020599	0.008087	
-0.002289	0.012360	0.029144	0.008698	
-0.002289	0.014191	0.018768	0.010834	
-0.005951	0.004425	0.002594	0.010223	
-0.003815	0.007172	-0.005646	0.014801	
-0.009613	-0.001373	-0.024261	0.007782	
-0.005646	0.005035	-0.063935	0.009308	
-0.012054	0.005646	-0.088349	-0.002899	
-0.006256	0.002289	-0.066987	0.012054	
-0.013275	-0.007477	0.080110	0.012360	
-0.006866	-0.001678	0.093537	0.018158	
-0.000763	0.002594	0.090180	0.012360	
-0.001678	0.000458	0.099031	0.009918	
-0.005341	-0.003204	0.045625	0.000153	
0.002289	0.005035	0.009308	-0.003204	
0.000153	0.007782	0.003204	-0.005341	
0.002594	0.009308	0.030975	0.004425	
-0.003815	0.002594	0.067292	0.001068	
-0.009613	0.001678	0.064546	0.003204	
-0.011749	-0.005035	0.070039	0.004120	
-0.017853	-0.012360	-0.008392	-0.004425	
-0.012360	-0.007172	-0.147554	0.001068	
-0.020294	-0.016937	-0.054780	-0.007477	
-0.018463	-0.013580	0.082856	0.000763	
-0.016327	-0.007782	0.033113	0.000153	
-0.006866	-0.003815	-0.149080	0.000763	
-0.011749	-0.013580	-0.123140	-0.005646	
-0.005035	0.000458	-0.057832	-0.004425	
-0.004425	-0.001068	0.029144	-0.011444	
0.000763	0.005646	-0.034028	-0.000763	
0.002899	0.008392	-0.030365	-0.005035	
0.004120	0.009918	0.085603	-0.000763	
0.005646	0.007782	0.131990	-0.009003	
0.010529	0.013275	-0.014496	-0.007477	
0.006866	0.012360	-0.047761	0.000763	
0.006256	0.009003	0.057221	0.005035	
0.008392	0.016632	0.098116	0.001984	
-0.002289	0.010834	0.051118	-0.005951	
-0.000153	0.012665	0.134432	-0.008392	
-0.003815	0.012054	0.095064	-0.016632	
0.003815	0.016937	0.001984	-0.007782	
-0.002899	0.006866	-0.079194	-0.011749	
-0.009613	-0.002899	-0.077973	-0.007477	
-0.022125	-0.023346	-0.007172	-0.006866	
-0.025482	-0.026398	0.133211	0.000763	
-0.027008	-0.034028	0.067903	-0.010529	
-0.019989	-0.023041	-0.055696	-0.014496	
-0.013885	-0.011444	-0.018158	-0.019379	
-0.007172	0.001984	0.099337	-0.011749	
-0.006256	-0.003815	0.061799	-0.005341	
-0.001373	-0.003204	0.001068	0.003815	
-0.003204	0.002289	0.003204	-0.000763	
-0.003204	-0.001373	-0.015106	0.000153	
-0.000153	0.004730	-0.031281	-0.000763	
-0.005646	0.008698	-0.035554	-0.018463	
0.000458	0.012970	-0.045930	-0.015106	
-0.000763	0.009308	-0.077058	-0.013580	
0.005646	0.014496	-0.077973	-0.005646	
-0.002289	0.005951	-0.101473	-0.010529	
0.008087	0.016327	-0.052644	-0.003510	
0.001678	0.013275	0.034028	-0.008087	
0.004425	0.019379	0.157626	0.000153	
-0.001984	0.011139	0.083772	-0.006866	
0.004425	0.011749	-0.065461	-0.005341	
-0.001984	0.008698	-0.083772	-0.009918	
-0.003815	0.012360	-0.019073	-0.014496	
-0.005341	0.005951	0.047151	-0.016632	
-0.004425	0.004730	-0.112459	-0.012970	
-0.006866	-0.001068	-0.158542	-0.009003	
-0.005341	-0.000153	-0.080110	-0.005951	
-0.001068	0.004120	-0.002289	0.003815	
-0.005646	0.000763	0.102388	0.005035	
-0.001068	0.008698	0.234226	0.014496	
-0.003815	0.004425	0.137484	0.008392	
-0.002289	0.005035	0.090180	0.000763	
-0.005951	0.002289	0.010223	-0.004120	
-0.006256	0.000763	-0.052949	-0.004425	
-0.011749	-0.004120	0.009308	-0.010529	
-0.003815	0.004120	0.032197	-0.005035	
-0.004425	0.004730	0.038911	-0.009308	
-0.003204	0.005951	0.037690	-0.009918	
-0.004425	0.003815	0.012665	-0.011749	
-0.001984	-0.005951	-0.019073	-0.013885	
-0.005951	-0.003510	-0.011444	-0.013580	
-0.008087	-0.001068	-0.005951	-0.010529	
-0.005341	0.004425	0.010223	-0.010529	
-0.002899	0.000458	0.036775	-0.009613	
-0.000763	0.006256	0.020294	-0.007477	
-0.003815	0.001984	-0.013580	-0.008087	
-0.003204	0.004120	-0.003204	-0.006256	
-0.006256	0.004425	-0.002899	-0.008087	
-0.003204	0.011749	0.041352	0.000153	
-0.001068	0.005646	0.030670	-0.009613	
-0.000763	0.004425	-0.010223	-0.007477	
-0.005951	0.001984	-0.019989	-0.009308	
-0.001678	0.012054	0.017853	-0.000763	
-0.008087	0.002594	0.041352	-0.006256	
-0.002899	0.005646	0.000763	0.002899	
-0.006866	0.008087	0.003204	0.000763	
-0.005341	0.006561	0.027008	-0.000763	
-0.014191	-0.000763	0.024872	-0.008087	
-0.013885	-0.006866	0.016632	-0.011444	
-0.011749	-0.003510	0.008392	-0.012054	
-0.009613	0.004730	-0.016022	-0.009308	
-0.003815	0.009003	-0.006866	-0.009613	
-0.001678	0.010529	0.011749	-0.006866	
-0.000153	0.010223	0.029144	-0.001678	
-0.007172	0.002899	0.022430	-0.008392	
-0.000153	0.008698	0.019073	-0.001068	
-0.005035	0.004120	0.004120	-0.007782	
-0.001984	0.004425	-0.011139	-0.010223	
-0.005646	0.004425	-0.041352	-0.018463	
-0.003204	0.006256	-0.030060	-0.012054	
-0.005951	0.001984	0.015411	-0.005341	
-0.003204	0.003815	0.063020	0.000153	
0.000153	0.001678	0.067903	-0.000763	
-0.000763	0.002899	0.019379	-0.012970	
0.001678	0.001068	-0.073091	-0.010223	
-0.001068	0.001068	-0.070344	-0.003510	
-0.001678	0.000763	0.000153	-0.004120	
0.000458	0.006866	0.005341	-0.000153	
-0.002899	0.008698	-0.003204	-0.000153	
-0.004425	0.008087	0.050813	-0.000763	
-0.001678	0.012970	0.093537	0.002899	
-0.007782	0.010834	0.094759	-0.005035	
-0.001068	0.014191	-0.016022	-0.005035	
-0.012360	0.000458	0.047761	-0.017853	
-0.003204	0.013885	0.132296	0.001984	
-0.009003	0.005951	0.063020	0.000763	
-0.003204	0.009918	0.016632	0.000153	
-0.007477	0.004120	-0.004425	-0.003510	
-0.002899	0.010529	0.021210	0.002899	
-0.011749	0.001678	-0.065766	-0.008087	
-0.007477	0.007172	-0.135042	-0.008087	
-0.003204	0.004120	-0.106356	-0.010223	
-0.001984	0.002899	-0.003815	-0.005951	
-0.000763	0.007172	0.025482	-0.003815	
-0.002289	0.003815	0.106966	-0.001984	
-0.003204	0.005035	0.092011	-0.004120	
-0.003510	0.005035	-0.092011	-0.011749	
0.001068	0.007782	-0.097200	-0.008087	
-0.005951	-0.002289	-0.052644	-0.012054	
0.002594	0.006561	-0.074311	-0.001373	
-0.008087	-0.009003	-0.109102	-0.011749	
-0.003204	-0.002289	-0.100557	-0.002899	
-0.008392	-0.005646	-0.029755	-0.005035	
-0.002289	0.001984	0.139925	0.000153	
-0.001068	-0.001984	0.184482	-0.005646	
-0.006866	-0.006256	0.083467	-0.007782	
-0.003510	-0.005035	0.097506	-0.007172	
-0.000153	-0.000763	0.041657	-0.003510	
-0.000763	0.000763	0.071565	-0.006256	
-0.005951	-0.003815	0.131380	-0.009308	
-0.009308	-0.003510	0.109713	-0.010529	
-0.007172	-0.002899	0.054475	-0.008087	
-0.005951	-0.003510	-0.015717	-0.005035	
-0.005341	-0.006256	-0.033113	-0.005951	
-0.003815	-0.005951	-0.033113	-0.000153	
-0.007172	-0.010834	-0.023041	-0.008392	
-0.003204	-0.002289	-0.040437	-0.006866	
-0.005035	-0.003204	-0.033723	-0.011444	
0.000458	0.005951	-0.002899	-0.004120	
-0.000153	0.009308	-0.026398	-0.005035	
0.000153	0.011749	-0.090486	-0.005646	
-0.000153	0.004425	-0.003204	-0.001678	
-0.002899	0.005035	0.115206	-0.006866	
-0.003815	-0.000153	0.047761	-0.011444	
-0.005951	0.000153	0.040437	-0.007172	
-0.009308	-0.000763	0.042268	-0.003510	
-0.006866	0.003204	0.002594	-0.000763	
-0.011139	0.000458	-0.072785	0.001678	
-0.015411	-0.006256	-0.088044	-0.003204	
-0.009003	-0.004120	-0.038606	-0.007782	
-0.013885	-0.009613	-0.089875	-0.014191	
-0.007172	-0.004120	0.021515	-0.009613	
-0.005951	0.000153	0.073701	-0.009613	
0.000153	0.008392	0.083467	-0.005646	
-0.009003	0.009003	0.131380	-0.009613	
-0.005341	0.009308	0.073091	-0.005646	
-0.011444	0.004730	0.028534	-0.010529	
-0.001984	0.010223	0.059358	-0.002899	
-0.007477	0.004425	-0.019073	-0.005035	
-0.004425	0.009308	-0.098116	-0.006866	
-0.005951	0.013885	-0.064851	-0.008392	
-0.006866	0.013885	-0.074922	-0.009918	
0.001678	0.018768	-0.035554	-0.007172	
-0.000153	0.014496	-0.009003	-0.007782	
0.002289	0.014191	-0.005646	-0.003510	
-0.006256	0.009918	-0.007477	-0.006256	
-0.002289	0.010834	0.001678	-0.004120	
-0.005341	0.003204	-0.011749	-0.009308	
-0.002289	0.005035	0.003815	-0.003510	
-0.001678	0.005951	0.009003	-0.005341	
0.001678	0.005951	0.004730	0.000458	
-0.001678	0.006256	-0.041657	-0.005646	
-0.001068	0.013275	-0.078584	-0.002289	
-0.002899	0.009003	-0.056001	-0.009003	
0.003204	0.014496	0.021210	-0.003510	
-0.003510	0.009308	0.003204	0.000763	
0.000763	0.011749	0.092011	0.013885	
-0.005951	0.001984	0.164035	0.010529	
-0.006256	0.000458	0.039521	0.001068	
-0.006256	-0.000763	0.044404	-0.005646	
-0.009308	-0.005646	0.036775	-0.006866	
-0.008392	-0.006256	-0.023346	-0.010223	
-0.009613	-0.012360	0.012665	-0.015717	
-0.005951	-0.010834	0.076447	-0.006256	
-0.012360	-0.016937	0.050508	-0.009613	
-0.012054	-0.015717	0.070039	-0.003510	
-0.013885	-0.019073	0.030670	-0.000153	
-0.005646	-0.009918	0.013275	0.004425	
-0.007782	-0.012054	-0.028534	-0.007477	
0.002289	0.001068	-0.031892	0.001068	
-0.001068	-0.002899	-0.056916	-0.007477	
0.002594	-0.000763	-0.028534	0.000153	
-0.002289	-0.003815	-0.019989	-0.007172	
-0.000763	0.001678	-0.004120	-0.009003	
0.000458	0.005035	0.037080	-0.013275	
-0.001678	0.002899	0.041657	-0.013580	
-0.005035	0.002899	0.073701	-0.013885	
-0.010223	0.000458	0.063020	-0.022125	
-0.005341	0.004730	-0.001373	-0.021515	
-0.005341	0.004120	-0.077058	-0.022125	
-0.003510	0.007172	-0.047761	-0.011749	
-0.007782	-0.000763	0.080720	-0.003510	
-0.005035	0.010223	0.012665	-0.004120	
-0.014191	0.001068	-0.035554	-0.017242	
-0.008392	0.007782	-0.116426	-0.010223	
-0.011444	0.003815	-0.120394	-0.017242	
-0.009003	0.009308	0.107576	-0.014191	
-0.007172	0.015717	0.186618	-0.017242	
-0.002289	0.018158	0.124056	-0.016632	
-0.003815	0.010834	0.025482	-0.013885	
-0.005341	0.004120	-0.027008	-0.004425	
-0.005951	0.000153	-0.106661	-0.000763	
-0.009613	0.004730	-0.110323	-0.000153	
-0.005341	0.006561	0.045625	0.001678	
-0.008087	0.004425	0.014191	-0.006256	
-0.005035	0.004425	-0.054170	-0.012054	
-0.007782	0.004730	-0.143892	-0.016632	
-0.004120	0.008087	-0.084992	-0.013580	
-0.011139	0.004425	0.105440	-0.005646	
-0.005646	0.010223	0.063020	0.003815	
-0.009613	0.002289	0.050813	-0.001678	
-0.002899	0.005951	-0.001068	-0.003204	
-0.005951	0.006561	-0.120089	-0.010529	
-0.003510	0.008392	-0.076142	-0.005951	
-0.008087	0.005035	0.055696	-0.009003	
0.001984	0.016327	0.200046	0.000153	
-0.005341	0.005646	0.119173	-0.005646	
-0.000153	0.012360	0.065156	-0.000153	
-0.000153	0.013885	0.016937	-0.007477	
0.000458	0.008087	0.013885	-0.001984	
-0.001068	0.001678	0.046540	-0.004120	
0.004425	0.004425	0.004730	-0.005035	
-0.000153	0.000153	0.007172	-0.005035	
-0.002899	-0.013275	0.087434	-0.010223	
-0.002899	-0.009613	0.144197	-0.007172	
-0.009003	-0.015106	0.014801	-0.012360	
-0.007172	-0.008392	-0.035249	-0.008087	
-0.005035	-0.005951	-0.016937	-0.008087	
-0.004425	-0.003510	-0.009003	-0.005646	
-0.003510	-0.000763	-0.001068	-0.004120	
-0.001678	0.000763	-0.002289	-0.003510	
-0.003815	0.000153	-0.023651	-0.011749	
-0.005341	0.001068	0.016327	-0.012054	
-0.001984	0.007782	-0.007172	-0.011444	
-0.000763	0.008698	-0.038606	-0.008392	
-0.002289	0.002289	-0.064851	-0.007477	
-0.002289	0.006561	-0.043794	-0.005951	
-0.003815	0.009003	0.005035	-0.005035	
-0.003815	0.005035	-0.037385	-0.007172	
-0.002289	0.005035	-0.046845	-0.005035	
-0.005951	0.004425	-0.017242	-0.006866	
-0.006866	0.003815	0.040437	-0.010223	
-0.007172	0.004730	0.051728	-0.009308	
-0.006256	0.008087	0.085908	-0.007782	
-0.010834	0.002289	0.048371	-0.009918	
-0.005341	0.008087	0.002289	0.000763	
-0.012054	0.003204	0.001678	-0.009308	
-0.005341	0.013275	0.016327	-0.007172	
-0.010834	0.004730	-0.005646	-0.002899	
-0.003204	0.011139	-0.145418	0.001678	
-0.007782	0.007172	-0.239719	-0.013580	
-0.003204	0.018158	-0.182040	-0.008087	
-0.009003	0.012970	0.000763	-0.010529	
-0.005646	0.010529	0.117037	-0.002289	
-0.006256	0.004425	0.259861	-0.007782	
-0.008087	-0.001068	0.166781	-0.009308	
-0.006866	-0.001984	0.113375	-0.006256	
-0.003510	-0.007782	0.097811	-0.008087	
-0.000763	0.001984	0.039216	-0.007172	
-0.006256	-0.003204	-0.008087	-0.009918	
-0.001984	0.007782	-0.005951	-0.005341	
-0.001678	0.012970	0.004730	-0.002899	
0.000763	0.014191	-0.036469	0.000763	
-0.007477	0.008698	-0.034638	-0.006256	
-0.003204	0.011139	-0.013885	-0.009308	
-0.006866	0.006561	0.017242	-0.013580	
-0.002899	0.010223	0.022125	-0.007782	
-0.006866	-0.001068	-0.008392	-0.009308	
-0.006256	0.001984	0.000153	-0.008392	
-0.003510	0.000153	-0.012970	-0.012054	
-0.002289	-0.001984	-0.007782	-0.012054	
-0.005035	0.003204	0.021210	-0.005646	
-0.005951	0.000763	0.024261	-0.005951	
-0.002289	0.002899	0.009003	-0.007782	
-0.009308	0.001984	0.005035	-0.008392	
-0.007477	0.005035	0.008392	-0.003510	
-0.009613	0.000458	-0.005646	-0.008392	
0.000458	0.008698	-0.011444	-0.000153	
-0.005951	0.002594	-0.012054	-0.008392	
-0.003510	0.006256	0.005341	-0.005646	
-0.005035	0.004425	0.005951	-0.002899	
-0.002899	0.003815	0.005035	0.002899	
-0.001984	0.001068	0.005951	0.005035	
-0.001984	0.004730	0.000763	-0.000763	
-0.006256	-0.000153	-0.007172	-0.009918	
-0.002289	-0.003815	-0.027008	-0.005646	
-0.002289	-0.001984	-0.055390	-0.005646	
-0.002899	-0.001984	0.037080	-0.007477	
-0.002289	-0.000763	0.084687	-0.005035	
-0.002289	-0.000153	0.055390	-0.000153	
-0.007477	0.000153	0.048676	-0.000763	
-0.013885	-0.004120	-0.008392	-0.000763	
-0.010834	-0.003510	0.010529	-0.001984	
-0.013580	-0.006256	0.022736	-0.011139	
-0.008392	-0.003204	0.068818	-0.009308	
-0.008087	-0.001373	0.050508	-0.008392	
-0.004425	0.004120	0.002899	-0.000763	
-0.005341	-0.001984	-0.040742	-0.005035	
-0.005646	-0.008392	-0.029144	-0.001373	
-0.006866	-0.008087	-0.012970	-0.002899	
-0.004120	-0.002289	-0.066987	-0.006866	
-0.003815	-0.003815	0.015411	-0.007172	
0.003815	0.001678	0.062409	-0.002899	
0.002289	0.001678	0.030060	-0.010223	
0.000763	-0.000763	0.011139	-0.009308	
0.005646	0.004425	0.011139	-0.005951	
0.004425	0.004730	0.007172	-0.009308	
0.005035	0.009308	0.028839	-0.005341	
-0.001068	0.004120	0.036775	-0.009308	
0.000153	0.004425	0.025482	-0.001068	
-0.005341	-0.003204	-0.016327	-0.008392	
0.001068	0.005646	-0.058442	-0.003204	
-0.001068	0.009308	-0.144503	-0.007172	
-0.005341	0.010223	-0.175632	-0.004425	
-0.009308	0.004425	-0.139315	-0.001373	
-0.003815	0.006866	0.024872	0.000458	
-0.009613	0.004120	0.328221	-0.009308	
-0.009003	0.007782	0.229038	-0.003510	
-0.009308	0.000458	0.026398	-0.005646	
-0.008392	0.004425	0.003204	-0.007477	
-0.008392	0.001068	0.036164	-0.005646	
-0.010223	0.002899	0.005035	-0.006256	
-0.005341	0.006561	0.004120	-0.002899	
-0.014801	0.002289	0.038911	-0.006866	
-0.011749	0.004425	-0.003815	-0.004120	
-0.015717	0.000458	-0.052644	-0.012970	
-0.008087	0.006561	-0.025482	-0.005035	
-0.008087	-0.001373	0.016632	-0.011749	
0.001678	0.004425	0.034638	-0.003510	
-0.003510	-0.001984	0.055085	-0.009613	
-0.005341	0.003204	0.038911	-0.012360	
-0.003204	0.013275	0.016632	-0.013885	
0.004120	0.024567	0.012054	-0.003815	
-0.005341	0.007172	-0.005341	-0.013580	
0.002289	0.004120	-0.006256	-0.005646	
-0.003204	-0.003815	-0.011749	-0.007477	
-0.005341	-0.006866	-0.012054	-0.007782	
-0.006866	-0.006256	-0.008087	-0.010529	
-0.011444	-0.015717	-0.009918	-0.012054	
-0.017548	-0.007782	-0.007477	-0.008392	
-0.016022	-0.005646	-0.008087	-0.013580	
-0.007782	-0.002289	-0.001678	-0.008392	
-0.008392	-0.002899	-0.002289	-0.007477	
0.000458	0.002594	-0.004425	-0.001678	
-0.006866	-0.005646	-0.005646	-0.010223	
-0.005341	-0.003204	-0.005341	-0.010223	
-0.007477	-0.000763	-0.015717	-0.013885	
-0.006866	0.000763	-0.015717	-0.011444	
-0.008392	0.004120	-0.017853	-0.009003	
-0.004425	0.005646	-0.007477	-0.005951	
-0.014801	-0.002899	-0.000763	-0.008392	
-0.006256	0.007782	0.020599	0.000763	
-0.011139	0.005035	0.037080	-0.007477	
-0.003815	0.003815	0.064546	-0.005646	
0.000153	0.015106	0.009003	-0.006866	
0.005035	0.022125	0.016327	-0.008087	
0.009918	0.010223	0.023346	-0.011444	
0.001984	0.001068	0.013885	-0.011749	
0.006561	-0.000763	0.024567	-0.009613	
0.008392	-0.002899	0.024567	-0.008392	
0.007172	0.012665	0.032807	-0.001984	
0.000458	0.010223	0.028839	-0.001984	
0.001068	0.014496	0.000763	-0.000153	
-0.005035	0.003815	-0.007172	-0.002899	
-0.001068	-0.008087	0.039216	0.003204	
-0.011444	-0.006256	-0.008087	0.001068	
-0.022430	-0.005951	-0.099337	-0.002899	
-0.027618	-0.008087	-0.019379	-0.013275	
-0.019684	0.001068	-0.011444	-0.012970	
-0.023651	0.002899	0.001984	-0.012360	
-0.021210	0.008392	0.016937	-0.006256	
-0.014191	0.008698	0.012970	-0.007477	
-0.000763	0.007782	0.016022	-0.005341	
0.016632	0.006256	0.030060	-0.001373	
0.023651	0.002899	0.018768	-0.000763	
0.029144	0.002289	0.016937	-0.000763	
0.028534	0.001678	0.012665	-0.003510	
0.024872	0.010223	0.004120	-0.005035	
0.018463	0.016327	-0.004120	-0.009308	
0.008698	0.004425	-0.009613	-0.007172	
-0.013275	-0.004120	-0.016022	-0.012970	
-0.017242	-0.003510	-0.017242	-0.005646	
-0.023346	-0.011749	0.026398	-0.013580	
-0.021515	-0.005035	0.047151	-0.017242	
-0.022430	-0.006866	0.041352	-0.021820	
-0.017853	-0.002289	0.040437	-0.007172	
-0.024261	0.004120	0.036469	0.005341	
-0.019379	0.010529	0.011139	0.003204	
-0.019989	0.010529	-0.052033	0.001678	
-0.007782	0.005951	-0.083772	0.001068	
0.009918	0.007782	0.025177	-0.001678	
0.009918	0.000458	0.114901	-0.005035	
0.014496	0.004425	0.024261	-0.003204	
0.002289	0.001678	-0.012360	-0.011749	
-0.006256	0.005951	0.068818	-0.012054	
-0.017548	0.003204	0.136568	-0.017548	
-0.021820	0.009003	-0.017853	-0.011139	
-0.025482	0.005035	-0.193942	-0.007172	
-0.017242	-0.003510	-0.076142	0.003815	
-0.015411	-0.003815	0.046540	-0.000763	
-0.007477	0.025177	0.125582	-0.000763	
-0.009308	0.025177	0.072480	-0.011139	
0.001068	0.005951	0.024261	-0.001068	
-0.004425	-0.019379	0.032197	-0.003204	
0.004120	-0.019073	0.002899	0.001068	
0.004730	-0.005035	0.022125	0.002289	
-0.007782	-0.002899	0.004120	-0.003204	
-0.017548	0.005035	0.005951	-0.005646	
-0.013885	0.032502	0.001068	-0.009613	
0.001678	0.040742	0.001678	-0.002899	
0.008392	0.001678	-0.009003	-0.009308	
0.021820	-0.019989	-0.001068	-0.004425	
0.018463	-0.019379	-0.005341	-0.015106	
0.018463	-0.013580	-0.009918	-0.010529	
-0.003815	-0.023041	-0.031281	-0.013275	
-0.001678	-0.005646	-0.021820	-0.007172	
-0.002899	0.000458	-0.015411	-0.012970	
0.001068	0.009308	0.029144	-0.007172	
-0.007477	0.005951	0.060578	-0.015106	
-0.017548	0.009003	0.036164	-0.012054	
-0.036469	0.000153	0.053254	-0.011749	
-0.047761	0.020294	0.070039	0.001068	
-0.059968	0.030975	-0.025482	0.001678	
-0.056916	0.008087	-0.141451	-0.003510	
-0.043489	-0.007172	-0.024567	-0.003510	
-0.026398	-0.006866	0.006866	-0.005646	
-0.015717	0.011139	-0.040437	-0.001984	
-0.013580	0.020294	-0.092011	-0.006256	
0.001068	0.046540	-0.063020	-0.003510	
0.032502	0.033113	0.028534	-0.012054	
0.071259	0.003204	-0.009308	-0.015717	
0.073396	-0.017853	-0.111238	-0.022125	
0.051118	-0.020905	-0.153353	-0.009308	
0.004425	0.006256	0.095064	-0.005951	
-0.001984	0.028229	0.196689	0.002594	
0.004120	-0.011444	0.033418	-0.010223	
0.007782	-0.029755	0.069428	-0.004120	
0.025787	-0.041963	0.054475	-0.005951	
0.034944	-0.041963	0.002289	-0.009308	
0.022125	-0.035249	0.102999	-0.010529	
0.006866	0.004730	0.212558	-0.011444	
0.002899	0.032502	0.051118	-0.009003	
-0.017853	0.012054	-0.002289	-0.007782	
-0.029449	0.022125	-0.012970	-0.000153	
-0.025482	0.042878	-0.019073	-0.002899	
-0.016022	0.051118	-0.033418	-0.016327	
-0.018463	0.025787	-0.015717	-0.028839	
-0.012360	-0.016937	-0.000763	-0.027924	
-0.015106	-0.052339	0.009003	-0.029755	
-0.021820	-0.061799	0.041352	-0.021210	
-0.034028	-0.075532	0.028534	0.002594	
-0.026093	-0.059052	0.006256	0.036775	
-0.029449	-0.041047	-0.001678	0.019073	
-0.033418	-0.007172	-0.013275	-0.014191	
-0.032502	0.016937	-0.011139	0.022736	
-0.011139	0.048982	-0.001068	0.018768	
-0.009308	0.062409	0.002594	-0.009003	
-0.016327	0.067597	-0.004120	-0.017853	
0.004425	0.066377	-0.004120	-0.029755	
0.011139	0.028229	-0.019073	-0.043489	
0.001984	-0.011139	-0.019684	-0.063935	
-0.009613	-0.027008	-0.025177	-0.074616	
0.014496	0.004425	-0.014191	-0.064851	
0.017853	0.012970	-0.012360	0.028229	
0.005035	0.037385	-0.003204	0.048066	
-0.017548	0.050813	-0.007172	-0.057221	
-0.060578	0.073091	0.007782	-0.083772	
-0.088044	0.086213	0.022736	-0.135653	
-0.071870	0.056306	0.020599	-0.177157	
-0.037080	0.016022	0.012970	-0.142672	
-0.005951	-0.025177	0.013275	-0.107882	
-0.001068	-0.041352	0.002594	-0.009003	
-0.000763	-0.030060	0.019073	0.089265	
-0.002289	-0.025787	0.016022	0.304112	
-0.011139	-0.027924	0.005951	0.380713	
0.005646	-0.044404	0.016022	0.172275	
0.058137	-0.057527	0.031281	0.190280	
0.091096	-0.023041	0.045625	0.090180	
0.038606	0.015106	0.022736	0.035554	
-0.026093	0.048371	0.026398	-0.028229	
-0.051118	0.045014	0.014801	-0.142672	
-0.019379	0.043489	0.011749	-0.213473	
0.048676	0.036775	0.007172	-0.249790	
0.096895	0.026093	0.005341	-0.095369	
0.086213	-0.000763	0.000458	0.124361	
0.059358	-0.040132	0.010529	0.210422	
0.010529	-0.081330	0.016327	0.251316	
-0.047456	-0.098421	0.021210	0.157016	
-0.092011	-0.077668	-0.002289	0.018768	
-0.060578	0.000458	-0.001068	-0.032807	
-0.039826	0.006256	0.000458	-0.088349	
-0.016937	0.002899	0.006256	-0.045930	
0.032502	0.012054	0.013885	-0.072175	
0.081941	0.010223	-0.000763	-0.137789	
0.105135	0.054780	0.008392	-0.138399	
0.050813	0.083161	0.014191	-0.005035	
-0.011444	0.073091	0.027313	0.084077	
-0.063935	0.030670	0.020599	0.043183	
-0.074311	0.009003	-0.000153	0.025177	
-0.070039	0.037385	-0.021210	-0.017242	
-0.038301	0.092317	-0.005341	-0.012054	
0.005646	0.042573	-0.007782	-0.027924	
0.020294	0.002594	0.001068	-0.038606	
0.005035	-0.067292	-0.012360	-0.061799	
0.005035	-0.086213	-0.024261	-0.149996	
0.016632	-0.047761	-0.013580	-0.194858	
-0.014191	0.004425	0.030670	-0.157016	
-0.033723	0.001984	0.045625	-0.129549	
-0.042268	-0.015106	0.012665	-0.117952	
-0.032502	-0.021820	0.007172	0.001678	
0.018463	-0.020905	0.006256	0.279087	
0.088349	-0.002289	0.046540	0.220493	
0.109407	-0.049287	0.049287	0.095980	
0.070954	-0.078279	0.019073	0.126497	
-0.005951	-0.088044	-0.009918	0.035859	
-0.059663	-0.071565	0.006256	-0.009308	
-0.078584	-0.035859	0.006866	-0.078889	
-0.077363	0.001678	0.010529	-0.196689	
-0.081330	0.014496	0.009003	-0.229343	
-0.060578	0.049897	0.012054	-0.022430	
-0.049592	0.054170	0.012054	-0.013580	
-0.043794	0.041963	0.008698	-0.039521	
-0.027008	0.031892	0.000763	0.086823	
-0.002289	0.027008	-0.009308	-0.055085	
-0.003204	0.014496	-0.010223	-0.054475	
-0.006866	0.008087	-0.005951	0.012054	
-0.013275	0.027313	0.009918	0.163119	
-0.019379	0.043489	0.028534	0.120394	
0.002899	0.042573	0.038606	0.055696	
0.016327	0.032807	0.022736	0.087739	
0.023956	0.038911	0.004120	0.042878	
0.018463	0.046540	-0.017242	-0.021210	
0.012054	0.061189	-0.025177	-0.062104	
-0.022430	0.034028	-0.034638	-0.091096	
-0.026398	0.020599	-0.046845	-0.180514	
-0.015717	-0.001068	-0.040437	-0.214999	
-0.004425	0.000458	-0.012360	-0.187228	
-0.001984	0.023041	0.001984	-0.250095	
0.009918	0.045320	0.050813	-0.351721	
0.011139	0.004425	0.093843	-0.218051	
0.008087	-0.023651	0.085298	0.016327	
0.003815	-0.036469	0.042573	0.246738	
-0.001068	-0.030060	-0.003204	0.141451	
-0.007477	-0.018158	-0.021210	0.122225	
-0.011749	-0.010223	-0.015411	0.255589	
-0.019073	0.000153	0.031281	-0.211642	
-0.020294	0.004425	0.059052	0.088349	
-0.016327	0.005646	0.046540	0.420081	
-0.015411	0.007782	0.012360	0.174716	
-0.012054	0.011749	0.000153	-0.145418	
-0.012970	0.010223	-0.019379	-0.203097	
-0.003510	0.014496	-0.017548	0.160983	
-0.009003	0.001068	-0.023346	0.308080	
-0.005341	0.000153	-0.017242	0.080720	
-0.009003	-0.001984	-0.003815	-0.276951	
0.003815	-0.003204	0.025177	0.052644	
0.003204	-0.011749	0.042573	0.228123	
0.003204	-0.012970	0.034638	0.247654	
0.000458	-0.016022	0.014801	0.185397	
0.002289	-0.013580	0.005341	0.267185	
0.010529	-0.001373	0.023956	0.222324	
0.009613	0.002899	0.007782	0.306249	
0.014801	0.009308	-0.029144	0.334020	
0.010529	0.002899	-0.059968	0.089570	
0.012665	0.006256	-0.026093	-0.111849	
0.002899	0.004120	-0.010223	-0.334935	
0.004730	0.009308	-0.040132	-0.521095	
-0.000153	0.001068	-0.012360	-0.846724	
0.005646	0.008087	0.028534	-0.913863	
-0.002899	0.000763	0.065156	0.160983	
0.003815	0.004120	0.078889	0.665751	
-0.003204	-0.005035	0.033418	0.376440	
0.005035	0.004425	0.014496	0.378576	
0.000458	-0.000153	0.022125	0.307469	
0.001678	0.004120	0.020599	0.044404	
-0.000763	0.002594	0.006256	-0.131990	
-0.001068	0.004425	-0.008087	-0.226292	
0.003815	0.013885	-0.017242	-0.361792	
-0.001068	0.008698	-0.027313	-0.569314	
-0.004425	0.004425	-0.033418	-0.851912	
-0.013275	-0.001984	-0.041657	-0.836041	
-0.005646	0.002289	-0.009308	-0.606852	
-0.012360	-0.005951	0.030670	-0.314488	
-0.012970	-0.003204	0.041352	0.691386	
-0.015106	-0.003510	0.022736	1.203174	
-0.009918	0.003204	0.021210	0.290380	
-0.010834	0.001678	0.022125	-0.469521	
-0.008087	0.002899	-0.002899	-0.423133	
-0.012360	-0.003815	-0.013885	-0.171359	
-0.012360	-0.006256	-0.006256	0.426490	
-0.009003	-0.007172	-0.009308	0.928512	
-0.009308	-0.016022	-0.016327	0.126802	
-0.005646	-0.023651	0.014191	-0.108187	
-0.006256	-0.034333	0.062409	0.035554	
-0.010223	-0.035249	0.054475	-0.085298	
-0.017853	-0.048066	0.010834	0.033113	
-0.004425	-0.035859	0.007172	0.586099	
-0.008087	-0.036469	0.011139	0.081330	
-0.005035	-0.028229	0.011139	-0.133516	
-0.003510	-0.019684	0.008698	-0.050508	
-0.003204	-0.005035	0.041352	-0.071565	
-0.003815	0.004120	0.028839	0.129244	
0.005035	0.012970	0.016937	0.336156	
0.001068	0.016632	0.010529	0.139009	
0.000763	0.024261	-0.005341	-0.106661	
0.001068	0.023041	0.002289	0.059052	
0.000458	0.024567	0.007782	0.071870	
0.002594	0.029144	0.018463	-0.194552	
-0.005646	0.024567	0.002594	-0.151827	
-0.008087	0.025787	-0.019073	0.060273	
-0.010834	0.019379	-0.021515	-0.118258	
-0.003204	0.022430	0.014801	0.119783	
-0.001068	0.023956	0.024261	0.229954	
-0.003815	0.023041	0.016937	-0.034944	
-0.015717	0.010529	-0.004120	-0.036164	
-0.012360	0.007172	-0.005646	-0.040742	
-0.012360	0.005951	-0.001678	0.111238	
-0.004425	0.006256	0.003204	0.216830	
-0.008087	-0.001068	-0.004120	0.054780	
-0.003815	0.010834	0.001984	-0.153963	
-0.002289	0.009918	0.001984	-0.292821	
0.001984	0.018463	0.008392	-0.312657	
-0.005646	0.009003	0.001068	-0.255589	
-0.004425	0.005951	0.004730	-0.211947	
-0.009613	0.004120	0.006561	-0.209811	
-0.006256	0.008087	0.005341	-0.188754	
-0.001984	0.014496	0.006561	-0.122225	
-0.005341	0.011749	0.006866	-0.128939	
0.001068	0.013275	0.013885	-0.106966	
-0.005341	0.009003	0.004730	-0.095369	
-0.000763	0.016937	0.012665	-0.074922	
-0.004120	0.013275	0.007172	-0.056306	
0.004730	0.018768	0.018463	-0.032807	
-0.003815	0.009003	0.015411	-0.028229	
-0.003204	0.012360	0.016937	-0.011444	
-0.002289	0.006256	0.014191	-0.004425	
0.000458	0.012970	0.015411	0.011139	
-0.001678	0.009308	0.016022	0.018158	
0.004730	0.008698	0.017242	0.026703	
-0.001984	0.004425	0.014191	0.029449	
-0.006866	0.006256	0.013885	0.034944	
-0.007477	0.001068	0.013885	0.035249	
-0.014801	-0.005341	0.010529	0.037690	
-0.011139	-0.000153	0.013275	0.039521	
-0.013580	-0.002899	0.008698	0.037385	
-0.011749	-0.003204	0.013275	0.037690	
-0.011444	-0.001984	0.007782	0.034944	
0.000458	0.004730	0.011749	0.035554	
-0.001984	0.005035	0.009308	0.035249	
0.001068	0.004730	0.013275	0.035859	
-0.001678	-0.005341	0.015411	0.035859	
0.001678	-0.002899	0.024261	0.033113	
-0.002899	-0.009003	0.041657	0.023651	
0.002594	-0.001373	0.061799	0.026093	
-0.008392	-0.007782	0.041657	0.013885	
-0.002899	0.003815	-0.001068	0.014191	
-0.007477	-0.005035	-0.040742	0.008087	
-0.007172	-0.006866	-0.092927	0.012360	
-0.006256	-0.003204	-0.092317	0.017548	
-0.012054	-0.014191	-0.090180	0.016632	
-0.013275	-0.025787	-0.001984	0.015411	
-0.011139	-0.023651	0.016937	0.012970	
-0.008087	-0.014191	0.166781	0.008087	
-0.015106	-0.012360	0.147554	-0.000153	
-0.004425	-0.000763	0.039521	0.003815	
-0.005035	0.001984	0.186313	0.001068	
-0.005646	0.007172	-0.006866	0.002594	
-0.009308	0.010834	-0.172885	0.001068	
-0.002289	0.020905	-0.080720	0.012054	
-0.009308	0.022430	-0.064240	0.010223	
-0.006256	0.028534	0.016327	0.002289	
-0.008087	0.029144	0.002899	-0.016022	
-0.000153	0.036469	-0.138399	-0.015411	
-0.004425	0.027924	-0.016937	-0.016022	
-0.002289	0.020599	0.145418	-0.006256	
0.000763	0.012665	0.230564	-0.006866	
-0.001678	0.005035	0.038911	-0.011139	
0.001068	0.010223	-0.037385	-0.009003	
0.000153	0.007782	0.043183	-0.011749	
-0.002289	0.010223	0.074922	-0.009308	
-0.002289	0.004120	0.063020	-0.014496	
0.000763	0.008698	-0.023041	-0.012054	
-0.010834	-0.001068	-0.079194	-0.009613	
-0.009003	-0.003815	-0.029144	-0.002899	
-0.006866	-0.005951	0.056306	-0.010223	
-0.000763	-0.000763	-0.090180	-0.011444	
-0.001678	-0.001373	-0.113070	-0.015106	
0.003204	0.005646	0.006866	-0.011139	
-0.000763	0.000763	0.075227	-0.012054	
-0.001678	0.002289	0.117647	-0.007477	
-0.002899	-0.000153	-0.029755	-0.008392	
-0.001984	0.002289	-0.103304	-0.001373	
-0.013580	-0.003510	0.005951	-0.007172	
-0.017853	-0.005951	0.064851	-0.009003	
-0.018158	-0.006256	-0.005951	-0.007782	
-0.019073	-0.015411	-0.020294	-0.007172	
-0.011749	-0.011139	0.021210	-0.005646	
-0.014801	-0.012054	0.022736	-0.015106	
-0.003510	-0.005035	0.017853	-0.003510	
-0.009003	-0.013580	-0.007477	-0.015106	
0.005035	-0.000153	-0.006866	-0.007172	
0.003204	-0.006866	-0.009308	-0.011444	
0.002899	0.001678	-0.000763	-0.006866	
-0.005341	-0.009308	-0.004120	-0.011749	
-0.004120	-0.013885	-0.004425	-0.009308	
-0.003815	-0.009613	-0.002289	-0.013885	
0.000153	-0.003204	0.001984	-0.011139	
-0.000763	-0.000153	0.006866	-0.010223	
-0.000153	0.004425	0.008392	-0.005951	
-0.003510	0.004425	0.009918	-0.004120	
-0.003510	0.004425	0.006256	-0.009918	
0.000153	0.005951	0.007172	-0.007477	
0.000763	-0.001373	-0.007172	-0.008392	
0.002899	0.008087	-0.003510	-0.007172	
-0.003815	0.002899	-0.002289	-0.002899	
-0.005951	0.002594	-0.003815	-0.005951	
-0.011444	0.001984	0.000153	-0.014191	
-0.001984	0.007782	0.012665	-0.001984	
-0.006866	0.000153	-0.007172	-0.010529	
-0.001984	0.003815	-0.005951	-0.005035	
-0.006256	-0.000763	-0.009918	-0.011444	
-0.000153	0.004425	0.007782	-0.004425	
-0.005035	-0.001373	0.001068	-0.004120	
-0.000153	0.004730	0.028534	-0.005035	
-0.001068	0.011749	0.065766	-0.001984	
-0.005341	0.010834	0.010223	-0.004120	
-0.010223	0.007172	0.024567	-0.009003	
-0.008087	0.006561	0.086213	-0.002899	
-0.009308	0.003815	0.074616	-0.000763	
-0.013885	-0.000763	0.005341	-0.003510	
-0.009613	-0.000153	-0.003510	-0.001373	
-0.011444	-0.006866	-0.034638	-0.009613	
-0.001373	0.002594	-0.012360	-0.001373	
-0.006866	0.004425	0.004120	-0.007477	
-0.001373	0.011749	0.009308	-0.003510	
-0.006256	0.005035	0.011139	-0.019684	
0.005035	0.013885	0.012360	-0.011749	
-0.006256	0.005951	0.001984	-0.015717	
-0.006256	0.012970	0.004730	-0.007172	
-0.005951	0.016022	0.004120	-0.009918	
-0.009308	0.020599	0.004425	-0.011749	
-0.003815	0.026398	0.010529	-0.012360	
-0.007782	0.014496	0.004425	-0.019073	
-0.007477	0.016632	0.016022	-0.010529	
-0.009308	0.008698	0.027313	-0.006256	
-0.009613	0.002594	0.041352	-0.005035	
-0.011444	0.001678	0.032807	-0.009918	
-0.005035	0.002289	0.033113	-0.008392	
-0.010223	-0.002899	0.020599	-0.014191	
-0.002899	0.005646	-0.000153	0.000153	
-0.011139	-0.004120	0.005951	0.000153	
-0.005646	-0.001373	0.016632	0.009308	
-0.010223	-0.011444	-0.011139	0.008698	
-0.011749	-0.013580	0.015106	0.003815	
-0.017548	-0.017853	-0.047456	-0.009308	
-0.005646	-0.003510	-0.064546	-0.000763	
-0.007172	-0.012970	0.004730	0.001984	
-0.005951	-0.012360	0.041657	0.006256	
-0.005035	-0.013275	-0.021515	0.002899	
-0.005341	-0.009918	0.018768	-0.009918	
-0.003204	-0.001984	-0.068818	-0.008392	
-0.000153	-0.001984	-0.144808	-0.007477	
0.001984	0.000458	0.109713	-0.005341	
-0.001984	-0.001373	0.132296	-0.004120	
0.002899	0.004730	0.074616	0.000153	
-0.001678	0.003204	0.077058	-0.005035	
0.001984	0.003204	0.070649	-0.009308	
-0.005035	-0.007782	-0.009308	-0.023346	
0.007782	0.004120	0.004730	-0.012054	
-0.001678	-0.002289	-0.111544	-0.020294	
0.001984	0.000458	-0.121004	-0.010223	
0.002289	-0.000763	-0.050202	-0.008087	
0.006866	0.010529	-0.015106	-0.001984	
-0.003204	0.005951	0.069734	-0.006256	
-0.002289	0.012665	0.257420	-0.005035	
-0.005951	0.006866	0.288243	-0.005646	
-0.000763	0.013885	-0.004425	-0.005646	
-0.003204	0.013885	-0.090486	-0.013275	
-0.007782	0.012970	-0.102083	-0.015717	
-0.003204	0.016327	0.031587	-0.006256	
-0.001984	0.018158	0.113375	0.004730	
-0.000763	0.019989	-0.048371	0.004730	
-0.007782	0.012054	-0.119478	-0.004425	
-0.003510	0.014496	-0.071870	-0.000153	
-0.003510	0.008087	0.043489	-0.005646	
0.002289	0.013885	0.119783	-0.003204	
-0.006256	0.004730	-0.003815	-0.009918	
-0.005646	0.010223	-0.048066	-0.007172	
-0.008392	-0.001678	0.034638	-0.011444	
-0.007477	-0.004120	-0.033113	-0.006256	
-0.006256	0.003815	-0.031892	0.003204	
-0.005035	0.004425	0.006256	0.004730	
-0.010834	0.003815	0.073396	-0.004425	
-0.006866	0.003815	-0.019073	-0.009918	
-0.004425	0.002289	-0.050202	-0.008392	
-0.003510	0.008392	-0.004120	-0.008392	
0.003204	0.011139	-0.009613	-0.015106	
0.001678	0.012360	0.004730	-0.017548	
0.001068	0.020294	0.026398	-0.010223	
0.001984	0.016937	0.035554	-0.012970	
0.004730	0.012970	0.011749	-0.006256	
0.002594	0.004730	-0.023346	-0.015106	
0.002594	0.013275	-0.045930	-0.015106	
-0.006256	0.008087	-0.040132	-0.020294	
0.001068	0.013275	-0.084992	-0.013275	
-0.016937	-0.006866	-0.098726	-0.022125	
-0.016937	-0.002289	0.016937	-0.009308	
-0.021515	-0.011749	0.095064	-0.003510	
-0.025482	-0.019379	0.074616	-0.001373	
-0.026093	-0.023956	0.135347	-0.003204	
-0.024872	-0.020905	0.228428	-0.003510	
-0.027618	-0.032502	0.091706	-0.011444	
-0.021210	-0.033113	-0.022430	-0.005646	
-0.016937	-0.029755	-0.103304	-0.002899	
-0.011749	-0.025482	-0.069734	-0.004425	
-0.005035	-0.014801	-0.006866	-0.005035	
-0.003815	-0.016937	0.043183	-0.006256	
0.001068	0.000458	0.124361	0.005035	
-0.007477	-0.003510	0.034028	-0.001984	
-0.001984	0.002594	-0.069123	0.002289	
0.000458	0.000458	-0.108187	0.000763	
0.002899	0.005646	-0.027008	0.005035	
0.000153	0.000763	-0.019989	-0.005035	
0.001068	0.003815	-0.071870	-0.007172	
-0.002289	0.006256	-0.032197	-0.007172	
0.000458	0.014496	0.033418	-0.004425	
0.000458	0.009003	0.042573	-0.011139	
-0.001678	0.004730	0.029449	-0.013580	
-0.005035	0.002594	0.003815	-0.016632	
-0.001068	0.004730	-0.044099	-0.011444	
0.004120	0.009308	0.018463	-0.005035	
-0.005341	0.002899	0.012665	-0.006256	
-0.000153	0.010223	0.021210	0.004730	
0.001984	0.013885	0.050813	0.002289	
0.009918	0.027008	-0.064240	0.009918	
0.002899	0.027924	-0.037690	0.005035	
0.008698	0.030975	0.063020	0.005951	
0.004730	0.027313	0.000458	-0.001678	
0.003815	0.026703	-0.006866	0.000153	
0.001984	0.012970	-0.009308	-0.006256	
0.004730	0.015106	0.005951	-0.004120	
-0.002289	0.009918	0.000153	-0.011749	
-0.003204	0.007782	-0.055696	-0.012054	
-0.006866	-0.001678	-0.040437	-0.010529	
-0.009308	-0.002289	0.037080	-0.009613	
-0.008392	0.000153	0.077058	-0.007172	
-0.014801	-0.003510	0.165561	-0.011749	
-0.010834	0.000458	0.093537	-0.006866	
-0.013275	-0.001373	0.009308	-0.003510	
-0.011749	-0.001373	0.105440	-0.000763	
-0.013275	0.003204	0.074616	-0.002289	
-0.010834	0.008698	-0.000763	-0.006866	
-0.014801	0.000763	0.012665	-0.011749	
-0.001068	-0.000763	-0.004425	0.002594	
-0.007477	-0.005646	-0.039826	-0.005341	
-0.005341	-0.001068	-0.019073	-0.003510	
-0.001984	0.000763	-0.015411	-0.008087	
-0.000153	0.000458	-0.010834	-0.006866	
-0.003510	-0.002899	-0.030060	-0.016022	
0.001678	0.004730	-0.008087	-0.011444	
-0.005341	0.004425	0.031587	-0.017242	
-0.005341	0.006256	0.034944	-0.009003	
0.000458	0.005035	0.014496	-0.006866	
-0.002289	0.005646	0.013275	-0.012970	
-0.004425	0.004425	0.050202	-0.011749	
-0.005035	0.007782	0.021210	-0.013580	
0.000153	0.015106	-0.027008	-0.009308	
-0.009003	0.009308	-0.038301	-0.017242	
-0.005341	0.013885	-0.052339	-0.013885	
-0.009308	0.012360	-0.074922	-0.014496	
-0.002899	0.017853	-0.072785	-0.001373	
-0.006256	0.011139	-0.041352	-0.002899	
-0.000763	0.014801	0.032807	-0.000153	
-0.002899	0.012970	-0.066072	-0.001984	
-0.003204	0.011749	0.022430	-0.004120	
-0.003204	0.008392	0.208285	-0.013580	
-0.001984	0.012054	0.045014	-0.009003	
-0.009003	0.007782	0.025177	-0.009003	
-0.006866	0.010223	0.096895	-0.005341	
-0.003815	0.009308	0.057832	-0.003510	
-0.001678	0.011749	-0.012970	-0.002899	
-0.001984	0.012970	-0.035859	0.002289	
-0.007782	0.004120	-0.031892	-0.005035	
-0.003815	0.016022	-0.024261	-0.006866	
-0.011749	0.019073	0.004730	-0.012054	
-0.003815	0.016327	0.047761	-0.005035	
-0.009003	-0.003815	0.035554	-0.007782	
-0.004425	-0.005035	0.023346	-0.001678	
-0.013275	-0.012970	-0.034638	-0.009308	
-0.006256	-0.005035	-0.059358	-0.001373	
-0.011139	-0.018158	-0.027008	-0.012054	
-0.005341	-0.014801	-0.027313	-0.007172	
-0.008392	-0.019073	-0.014191	-0.011139	
-0.004425	-0.015411	-0.026398	-0.001373	
-0.006866	-0.011139	0.076753	-0.001984	
-0.006256	-0.004120	0.053559	-0.008392	
-0.005341	0.001068	-0.034638	-0.016327	
-0.008087	-0.003204	0.033113	-0.016327	
-0.008392	0.001678	0.022736	-0.011139	
-0.015717	-0.006256	0.007782	-0.012054	
-0.009308	-0.001373	0.047456	-0.009613	
-0.009918	-0.001984	0.028839	-0.015106	
-0.005951	0.004730	0.006561	-0.013580	
-0.013885	-0.005646	-0.003204	-0.016022	
-0.008392	-0.001678	0.009308	-0.004425	
-0.009003	-0.005646	0.027008	-0.013275	
-0.003204	0.005951	0.028534	-0.009003	
-0.008087	-0.010834	0.004730	-0.014191	
-0.001984	-0.007782	0.031281	-0.009918	
-0.007477	-0.006866	0.030365	-0.009613	
-0.002899	-0.004120	0.053254	-0.006866	
0.002899	-0.005035	0.046235	-0.009003	
-0.000763	-0.004120	-0.116732	-0.011749	
0.003204	-0.003204	-0.148775	-0.002899	
-0.002289	-0.002289	-0.136873	-0.001373	
-0.002289	-0.000763	-0.052949	-0.002289	
-0.000153	-0.000763	0.220798	-0.006866	
0.000763	0.001984	0.307775	-0.011139	
-0.001678	-0.003204	0.031587	-0.009918	
0.001678	0.008392	-0.044099	0.001984	
-0.001984	0.006561	-0.104830	-0.002289	
0.003815	0.014496	-0.013275	0.000153	
-0.000763	0.007172	-0.020294	-0.004425	
-0.003204	0.005035	-0.027313	-0.001984	
-0.003204	0.006561	-0.012360	-0.004120	
-0.003510	0.008087	-0.043183	-0.005035	
-0.004425	0.008087	-0.005646	0.001678	
-0.007477	0.005646	0.019073	-0.003510	
-0.002289	0.010834	0.030365	-0.001984	
-0.008392	0.004730	0.020294	-0.000763	
-0.006866	0.010834	0.018463	-0.004120	
-0.011749	0.005951	-0.002899	-0.012054	
-0.005951	0.008698	0.012054	-0.005341	
-0.009613	0.001678	0.012054	-0.010529	
-0.007172	0.004730	0.014191	-0.009003	
-0.011444	-0.001373	0.008392	-0.012054	
0.001068	0.006256	0.021515	-0.004120	
-0.005341	0.001678	0.014191	-0.013885	
-0.002899	0.010223	0.009308	-0.009003	
-0.008087	0.002289	-0.049287	-0.010529	
-0.008392	0.001068	-0.060884	-0.005341	
-0.016937	-0.006866	-0.027313	-0.012970	
-0.009003	0.000763	0.097811	-0.007172	
-0.013275	0.004425	0.149385	-0.009003	
-0.009613	0.008087	-0.009918	-0.012970	
-0.003815	0.010529	-0.011139	-0.009613	
-0.002289	0.005035	0.002289	-0.011139	
-0.001373	0.008698	0.002594	-0.013580	
0.002594	0.017853	0.006866	-0.006866	
0.001984	0.010834	0.017853	-0.005646	
0.002594	0.004120	0.018463	-0.008087	
-0.000153	-0.001373	0.002899	-0.007477	
-0.009918	-0.009308	0.009003	-0.009918	
-0.003510	-0.012970	0.015411	-0.005646	
-0.010834	-0.015717	0.009003	-0.006256	
-0.005951	-0.007172	0.012054	0.001678	
-0.011139	-0.009003	0.005035	-0.009918	
-0.002289	0.002289	0.009003	-0.004425	
-0.007477	0.004120	0.006256	-0.008392	
-0.005341	0.007782	0.003204	-0.004425	
-0.010223	0.006256	-0.009918	-0.009613	
-0.008087	0.005646	-0.021515	-0.009918	
-0.001068	0.012054	-0.017548	-0.003510	
-0.001068	0.016022	0.009918	-0.000153	
-0.002289	0.016937	0.071259	-0.000153	
-0.002289	0.016937	0.034333	0.000763	
-0.005035	0.014496	-0.045625	0.001068	
-0.006866	0.007782	0.011139	0.003204	
-0.009003	0.007172	0.059663	0.002594	
-0.015106	-0.002899	0.065461	-0.000153	
-0.006866	-0.001373	0.038911	0.000763	
-0.007477	-0.002899	-0.044099	-0.007172	
-0.000153	0.008698	-0.044709	-0.002899	
-0.002899	0.005951	-0.020294	-0.004120	
-0.001068	0.006561	-0.007477	-0.005646	
-0.006866	-0.000763	-0.006866	-0.009918	
-0.003815	0.001678	-0.009918	-0.008392	
-0.002289	0.001678	-0.001678	-0.004425	
-0.006256	0.003204	0.020294	-0.005951	
-0.009308	0.001984	0.002899	-0.008087	
-0.012054	-0.002289	-0.018463	-0.013580	
-0.003510	0.004425	0.029144	-0.015106	
-0.002899	0.007172	0.042878	-0.013580	
-0.007477	0.006561	0.026398	-0.009918	
-0.011749	-0.002899	0.002899	-0.013275	
-0.007477	-0.005341	-0.007477	0.001984	
-0.012054	-0.015411	0.034333	0.002289	
-0.005951	-0.013580	0.084687	-0.001984	
-0.012054	-0.020294	0.005341	-0.015411	
-0.007477	-0.006866	0.033113	-0.013885	
-0.007782	-0.001373	-0.038606	-0.018463	
0.000763	0.005951	-0.026093	-0.009003	
-0.005341	-0.005951	0.011139	-0.009003	
-0.002289	-0.009308	-0.012054	-0.000763	
-0.007172	-0.012970	0.042878	-0.005035	
-0.005951	-0.007172	-0.015106	-0.007477	
-0.000153	-0.005035	-0.017548	-0.010529	
-0.003510	-0.002289	0.023956	-0.010223	
0.001984	0.004730	0.006866	-0.005646	
-0.003204	0.008698	0.009308	-0.010223	
-0.005341	0.008698	0.015411	-0.008392	
-0.013885	-0.000153	0.006256	-0.009918	
-0.015411	0.004730	0.006256	-0.005646	
-0.018463	0.006561	-0.005951	-0.016022	
-0.001678	0.010834	0.010223	-0.008392	
-0.002289	0.000458	0.004730	-0.011749	
0.002899	0.000458	-0.001678	-0.008392	
0.005646	0.003815	0.008087	-0.005035	
0.004120	0.000458	0.017242	-0.010223	
0.006866	-0.000153	-0.002289	-0.012054	
0.012054	0.006561	0.004425	-0.009918	
0.012054	0.001984	-0.010223	-0.015717	
0.019073	0.003204	-0.042268	-0.011749	
0.009918	0.006256	-0.043794	-0.008087	
-0.000763	0.006256	0.008698	-0.005035	
-0.015411	-0.001678	-0.019684	-0.013580	
-0.021210	-0.006866	0.002594	-0.011444	
-0.017853	0.003204	0.045014	-0.011139	
-0.030060	0.009308	0.117037	-0.014496	
-0.026093	0.013275	0.057527	-0.005341	
-0.035859	-0.001984	-0.008087	-0.014191	
-0.020294	0.000153	0.034333	-0.002899	
-0.013275	-0.007477	0.047761	-0.010223	
-0.005035	0.003204	0.006866	-0.005341	
0.003204	0.010529	-0.018158	-0.007172	
0.008087	0.002594	-0.015717	-0.002899	
0.009613	-0.005646	-0.012054	-0.002899	
0.012970	-0.002899	0.024872	0.000458	
0.013275	0.003204	0.072480	0.002899	
0.008087	0.007172	0.002899	0.002594	
0.006561	0.008392	-0.021515	0.000763	
0.009003	0.009003	-0.019684	-0.005951	
0.012665	0.019073	-0.002899	-0.007172	
0.001984	0.012360	0.021210	-0.005951	
0.000458	0.015717	0.034944	0.005341	
-0.000763	0.010223	0.002289	-0.003510	
-0.002289	0.001678	-0.008392	-0.008392	
-0.009308	-0.011444	-0.011444	-0.014496	
-0.006866	-0.009613	-0.001373	-0.005035	
-0.011749	-0.005951	0.010529	-0.000763	
-0.012054	-0.001373	0.010223	0.000763	
-0.016937	-0.004120	0.005341	0.000153	
-0.019684	-0.007172	0.014191	0.000763	
-0.025787	-0.017242	-0.001678	-0.005341	
-0.012360	-0.009003	-0.001068	-0.004425	
-0.007782	-0.007172	0.014801	-0.012360	
-0.007477	0.002594	0.010529	-0.016327	
-0.015411	0.005646	-0.005035	-0.019379	
-0.016022	0.007782	-0.001678	-0.012054	
-0.017853	0.005951	0.010223	-0.009308	
-0.018158	0.018768	0.016937	-0.012970	
-0.013885	0.025177	0.016022	-0.010529	
-0.029144	0.017853	0.005951	-0.017853	
-0.022125	0.023346	0.024872	-0.005646	
-0.013885	0.010529	0.016937	-0.008392	
0.006561	0.017242	0.014801	-0.000153	
0.002594	0.008698	0.005951	0.021515	
0.006256	0.010529	0.006866	0.002899	
0.014801	0.020905	0.009918	-0.030670	
0.029144	0.024872	0.006256	-0.029755	
0.032502	0.034028	0.001068	-0.041963	
0.031281	0.023956	-0.001678	-0.036164	
0.019073	-0.009003	-0.001678	0.013885	
0.002594	-0.032502	0.000153	0.092317	
-0.008087	-0.027313	0.012054	0.044709	
-0.010223	-0.027924	0.009308	-0.002289	
-0.002289	-0.030060	-0.016022	0.006561	
-0.016327	-0.019379	-0.027008	0.002289	
-0.027313	0.005035	0.001068	0.002899	
-0.020905	0.026398	-0.004425	-0.007172	
-0.010223	0.012665	-0.021515	-0.005951	
-0.027618	-0.004120	-0.005646	-0.013885	
-0.025482	0.001678	0.024261	-0.007172	
-0.022430	0.002899	0.015411	-0.014191	
-0.011749	0.023346	0.072480	-0.019989	
-0.006866	0.038911	0.063020	-0.035859	
-0.003510	0.024567	0.056916	-0.030670	
0.006866	0.004730	0.053559	-0.040742	
0.016022	-0.000153	0.009308	-0.022430	
0.000763	-0.019989	0.023346	-0.007172	
-0.000763	-0.001068	0.025177	0.042878	
-0.006866	-0.006866	0.010529	0.022430	
-0.007477	-0.038301	0.005951	-0.021820	
0.013275	-0.042573	0.003204	-0.003204	
0.044709	-0.043183	0.000458	-0.007172	
0.052339	-0.031892	-0.006866	-0.005646	
0.043794	-0.027008	-0.017853	-0.012970	
0.023041	-0.007172	0.001984	-0.006866	
-0.001373	-0.004120	0.028534	-0.009308	
-0.016937	0.004120	0.057221	-0.005035	
-0.043794	0.027313	0.047761	-0.015717	
-0.058442	0.045014	-0.009003	-0.006866	
-0.077668	0.055085	-0.086518	-0.001678	
-0.071259	0.048066	-0.051423	-0.019684	
-0.083467	0.030975	-0.014496	-0.032502	
-0.106356	0.042573	-0.023956	-0.038606	
-0.114595	0.050813	-0.013275	-0.081635	
-0.047151	0.040132	-0.005341	-0.095980	
0.023651	0.001678	0.004120	0.009918	
0.076753	-0.019684	0.014191	0.023346	
0.109102	-0.040132	0.019073	-0.139925	
0.128633	-0.019684	-0.002899	-0.319371	
0.141451	0.070039	-0.003510	-0.123140	
0.076753	0.077363	0.005951	-0.026703	
-0.029755	-0.001678	0.020294	-0.067292	
-0.077973	-0.071565	0.028534	0.053254	
-0.089875	-0.061189	0.028534	0.201266	
-0.083161	-0.045014	0.009003	0.323949	
-0.057221	-0.042268	0.007782	0.220798	
-0.032502	-0.032502	0.013885	0.139315	
-0.006866	-0.027924	0.017242	0.130770	
-0.011139	-0.045625	-0.005341	-0.070954	
-0.015106	-0.041047	-0.009613	-0.239109	
-0.057221	-0.036469	-0.009003	-0.274815	
-0.061189	-0.002289	0.001068	-0.179904	
-0.005646	0.014496	0.020294	-0.133821	
0.016632	0.008087	0.018158	-0.210422	
0.044099	0.031892	0.014496	-0.096895	
0.089875	0.037385	0.038606	0.104830	
0.103914	0.052033	0.060273	0.322423	
0.074311	0.079499	0.048982	0.322423	
0.050202	0.098726	0.034028	0.316319	
-0.026093	0.058137	0.004120	0.281223	
-0.059358	0.037385	-0.014496	-0.062409	
-0.040437	0.012360	-0.040437	-0.610209	
-0.022125	0.002899	-0.031892	-0.775311	
0.014801	-0.019684	-0.009613	-0.193637	
0.037995	-0.007477	0.008698	0.301671	
0.026093	0.018768	0.010529	0.115206	
0.044404	0.036164	0.028534	0.191806	
0.044404	0.036469	0.031281	0.251316	
0.001678	0.050813	0.014191	0.366980	
-0.086213	-0.016327	0.014496	0.607157	
-0.131685	-0.066682	0.016327	0.684367	
-0.104525	-0.072785	-0.027924	0.493629	
-0.036164	-0.081330	-0.072480	0.101778	
0.030975	-0.045320	-0.049287	-0.058137	
0.045014	0.000458	0.012665	-0.161593	
0.048676	0.035249	0.044404	-0.334935	
0.028839	0.016022	-0.003510	-0.612040	
0.034944	0.005035	0.007782	-0.577859	
0.043183	0.016327	0.047151	-0.302587	
0.044709	0.060578	0.075227	-0.132601	
0.018463	0.073396	0.073091	0.007172	
-0.009308	0.048982	0.049592	0.421607	
-0.013275	0.047151	0.034333	0.294347	
-0.008087	0.046235	0.020294	0.006561	
-0.005341	0.068513	0.025482	-0.006256	
-0.015411	0.092927	0.024567	-0.031587	
-0.021210	0.056306	0.016327	0.061189	
-0.010834	0.006866	0.000763	0.051423	
-0.016937	-0.019684	-0.000153	-0.103914	
-0.017548	-0.061189	0.009918	-0.135347	
-0.012360	-0.065156	0.007172	-0.034333	
-0.022430	-0.067597	-0.006866	-0.005035	
-0.038911	-0.051118	-0.015411	-0.066682	
-0.099947	-0.043489	-0.061494	-0.076753	
-0.095369	-0.070039	-0.084382	-0.077363	
-0.041047	-0.074311	-0.051423	-0.079194	
-0.001068	0.011139	0.028534	-0.098421	
-0.019989	0.143587	0.035249	-0.125277	
-0.021210	0.164950	0.026703	-0.207370	
-0.001984	0.097811	0.001678	-0.267796	
0.007172	-0.039216	0.013275	-0.225681	
0.001678	-0.149691	0.036469	-0.182651	
0.004120	-0.185397	0.038606	-0.384680	
0.039826	-0.189364	0.019379	-0.393835	
0.050202	-0.184482	-0.030365	0.039826	
0.049287	-0.169833	-0.028229	-0.017853	
0.031281	-0.127718	0.016632	-0.059358	
0.027313	-0.074006	0.038911	0.291905	
0.008392	-0.000153	0.015106	0.388647	
-0.009613	0.064851	0.033418	0.334630	
-0.029144	0.079194	0.054780	0.428016	
-0.039826	0.075532	0.048371	0.120089	
-0.057527	0.067597	0.016937	0.105745	
-0.050202	0.072480	-0.009613	0.420081	
-0.037690	0.074922	-0.032502	0.314794	
-0.019379	0.082856	-0.039216	0.022736	
-0.021515	0.070039	-0.016937	-0.332494	
-0.011139	0.064851	0.031281	-0.840009	
-0.013275	0.057221	0.026093	-0.981003	
-0.009308	0.052339	0.011139	-0.451209	
-0.004425	0.046235	0.007782	0.215610	
-0.001678	0.039826	0.005951	0.690776	
0.003204	0.040742	0.015411	0.669719	
-0.006256	0.029755	0.016937	0.287328	
-0.001068	0.030975	0.020294	0.354773	
0.006256	0.029144	0.023346	0.131075	
0.010529	0.028534	0.032807	0.211337	
0.006561	0.018768	0.014801	0.075837	
0.012360	0.016632	-0.011749	-0.043489	
0.002594	-0.001068	-0.024261	0.045320	
0.004730	-0.005035	-0.029449	-0.095369	
0.003815	-0.011139	-0.033723	-0.277561	
0.005646	-0.001984	-0.026398	-0.202792	
0.008392	-0.006256	-0.009003	-0.134127	
0.002899	-0.002899	0.009918	-0.284276	
-0.000153	-0.005951	0.015411	-0.254368	
0.001984	-0.007477	0.026398	0.006561	
0.008087	-0.003510	0.016327	0.153963	
0.002899	-0.011444	-0.005951	0.283666	
0.002289	-0.009308	-0.011749	0.389868	
-0.000153	-0.007782	-0.027618	0.126497	
0.005035	-0.001373	-0.013275	-0.085603	
0.001068	0.000153	0.000763	-0.101473	
0.005035	0.004425	0.008698	-0.117647	
-0.003204	0.002594	0.007172	-0.075532	
-0.001984	0.004425	0.010223	-0.051728	
-0.007477	0.001678	0.005035	-0.081025	
-0.005035	-0.000763	0.001984	-0.079499	
-0.011139	-0.007172	0.004120	-0.082551	
-0.007172	-0.005341	-0.004425	-0.149385	
-0.011444	-0.007477	-0.008392	-0.165866	
-0.009918	-0.003815	0.005035	-0.236973	
-0.011749	-0.003204	0.018768	-0.507668	
-0.011749	0.002899	0.016937	-0.815289	
-0.009308	0.003815	-0.000153	-0.838483	
-0.009003	0.003815	-0.006866	-0.340734	
-0.008392	0.001984	0.004120	0.491493	
-0.009308	0.001678	0.024567	1.238880	
-0.005646	-0.001373	0.047151	0.856794	
-0.007172	-0.006256	0.042878	0.713664	
-0.007172	-0.005646	0.037690	0.457007	
-0.007172	-0.012970	0.028534	0.171969	
0.002594	-0.009003	0.032197	0.057221	
-0.006256	-0.019989	0.016937	-0.017548	
-0.000763	-0.025482	0.017853	-0.060273	
-0.003510	-0.029144	0.014496	-0.104830	
0.000458	-0.025177	0.014191	-0.128939	
-0.000763	-0.027618	0.009308	-0.136263	
0.002899	-0.019073	0.012970	-0.139925	
0.000458	-0.015717	0.006866	-0.141451	
-0.004120	-0.013580	-0.001678	-0.124056	
-0.006256	-0.002289	0.003204	-0.102694	
-0.011139	-0.002289	0.002594	-0.093843	
-0.008392	0.008698	0.004730	-0.101473	
-0.012360	0.009003	0.002289	-0.095369	
-0.003815	0.018768	0.010529	-0.070649	
-0.017853	0.002899	-0.000153	-0.081330	
-0.011139	0.016937	0.005341	-0.082856	
-0.005341	0.018158	0.002594	-0.095064	
0.001984	0.019989	0.007782	-0.110018	
0.001678	0.019073	0.002594	-0.063935	
0.003815	0.028839	0.006256	0.069734	
0.002899	0.019073	0.008392	0.025482	
0.002899	0.014496	0.004120	-0.016632	
-0.003204	0.011749	0.004730	-0.000153	
-0.003815	0.009308	0.005951	0.000153	
-0.013885	-0.005035	0.004730	0.001678	
-0.016022	-0.014801	0.009918	0.008698	
-0.013580	-0.009613	0.016632	0.016022	
-0.014191	-0.007172	0.015411	0.022430	
-0.008087	-0.002289	0.015411	0.025177	
-0.009613	-0.009308	0.014496	0.017242	
-0.009613	-0.010223	0.014191	0.014191	
-0.010223	-0.008392	0.009003	0.008087	
-0.003815	0.002594	0.015411	0.018768	
-0.009308	0.000153	0.005341	0.008698	
-0.003815	0.005951	0.009918	0.014496	
-0.007477	0.005035	0.004120	0.004425	
-0.000763	0.014801	0.012054	0.008698	
-0.003815	0.012970	0.007782	0.001678	
0.000153	0.013275	0.012054	0.008087	
-0.000763	0.016022	0.028839	0.008392	
-0.000763	0.018463	0.035554	0.005035	
-0.000763	0.017853	0.024567	0.000763	
-0.004120	0.016022	0.009003	0.002289	
-0.009003	0.009918	-0.017548	-0.000763	
-0.009003	0.007172	-0.058442	-0.004425	
-0.008087	0.008087	-0.064546	0.000458	
-0.009613	0.002899	-0.023956	-0.000153	
-0.004425	0.009918	0.007782	0.005341	
-0.001984	0.013885	0.001678	0.000763	
0.005951	0.015106	0.065766	-0.000763	
-0.001068	0.009003	0.103609	-0.007782	
0.002899	0.014191	0.085603	-0.002899	
-0.004425	0.005951	0.036775	-0.017548	
0.003204	0.010223	0.082551	-0.012970	
0.000153	0.006256	0.003204	-0.009308	
0.001984	0.004120	0.088044	-0.001068	
-0.001984	-0.001373	0.109102	0.005035	
-0.001984	0.000458	0.030670	0.000153	
-0.009613	-0.000153	-0.041963	-0.012970	
-0.012360	-0.004120	-0.169528	-0.017242	
-0.011444	-0.007172	-0.160983	-0.016327	
-0.013885	-0.005341	-0.117647	-0.009003	
-0.004425	0.004730	-0.021515	0.004425	
-0.005341	0.004425	0.016327	0.002289	
-0.000153	0.013885	0.005951	0.007782	
-0.007477	0.002899	0.027924	-0.009918	
0.000763	0.012970	0.095980	-0.007782	
-0.007477	0.008087	-0.025482	-0.017242	
-0.001373	0.010223	-0.168002	-0.022736	
-0.005951	0.000763	-0.224766	-0.028839	
-0.012054	-0.005646	-0.182956	-0.019379	
-0.017853	-0.016327	0.134737	-0.000763	
-0.011749	-0.008392	0.456702	0.015411	
-0.009613	-0.007172	0.469215	0.008087	
-0.001984	0.002289	0.032197	0.000458	
-0.004425	0.001678	0.016327	-0.016632	
-0.008392	-0.002289	-0.075532	-0.009918	
-0.012970	-0.002289	-0.074616	-0.001984	
-0.010834	0.000458	0.177157	-0.004120	
-0.013275	0.002899	0.051423	-0.006866	
-0.020905	-0.007172	-0.092927	-0.004425	
-0.023041	-0.002899	-0.104830	-0.004120	
-0.028229	-0.009003	0.023041	-0.012970	
-0.008392	-0.000153	0.018768	-0.001678	
-0.009308	-0.004120	-0.031587	-0.011749	
0.003815	0.004425	-0.015717	0.003204	
-0.002289	0.001068	-0.007172	-0.002289	
-0.001678	-0.001068	0.000458	-0.015106	
0.001068	-0.003204	-0.014191	-0.048676	
-0.003510	0.000153	-0.047761	-0.094759	
-0.005035	0.000458	-0.064546	0.014801	
0.001678	0.008087	-0.041352	0.040742	
0.010529	0.015717	-0.002899	0.026093	
0.005951	0.010529	-0.005646	0.017548	
0.009003	0.021210	-0.028229	-0.056611	
0.002899	0.015717	-0.048371	-0.044709	
0.009918	0.022430	-0.093843	-0.011139	
0.007782	0.014496	-0.102999	-0.003204	
0.008392	0.013885	0.053254	0.015411	
0.001068	0.004730	0.046235	0.001678	
-0.000763	0.002899	-0.029755	0.014191	
-0.002899	0.002899	0.106050	0.020905	
0.001068	0.004730	0.177157	0.010529	
0.001678	0.004120	0.062715	0.012360	
-0.002899	0.004120	0.050508	-0.012054	
-0.007477	-0.001068	0.081635	-0.010529	
-0.001068	0.001984	0.035554	-0.005951	
-0.003815	-0.003815	0.019989	-0.008087	
-0.005341	-0.003510	-0.030365	-0.010529	
-0.003815	-0.003204	-0.039826	-0.006256	
-0.005646	-0.001068	-0.045320	-0.009918	
-0.006866	0.004425	-0.053559	-0.006256	
-0.005341	0.000458	-0.034333	-0.006866	
-0.000763	0.005035	-0.006866	-0.000763	
-0.008087	0.001678	-0.009003	-0.003510	
-0.001373	0.007172	0.001068	-0.014191	
-0.002289	0.004120	-0.005341	-0.003510	
-0.003510	0.004425	0.030670	-0.072480	
-0.005646	-0.001678	0.015411	-0.036469	
-0.003204	0.003815	0.031281	0.016632	
-0.008087	-0.004120	0.035554	-0.012970	
-0.001068	0.003815	0.023041	0.000458	
-0.005951	0.002289	-0.003815	0.006866	
-0.001984	0.008392	0.016937	-0.000763	
0.000153	0.005035	0.032197	-0.032197	
-0.000153	0.003204	0.036469	-0.055085	
-0.000763	0.000458	0.016022	-0.054475	
-0.006256	-0.001984	0.007782	0.025177	
-0.005951	0.000763	0.012054	0.102999	
-0.005646	0.002594	0.007782	0.013275	
0.000458	0.009308	0.008698	-0.009918	
0.000763	0.012970	0.005341	-0.007782	
0.000763	0.021820	0.010529	-0.009003	
-0.013275	0.012970	0.001984	-0.017853	
-0.012970	0.020905	0.008392	-0.012054	
-0.022430	0.005951	0.002594	-0.019379	
-0.023651	-0.005341	0.010223	-0.008392	
-0.037080	-0.028534	0.007782	-0.014191	
-0.037385	-0.033418	0.009918	-0.009308	
-0.034333	-0.035554	0.008698	-0.010529	
-0.032502	-0.031587	0.010529	-0.008087	
-0.023041	-0.019379	0.013885	-0.005341	
-0.016327	-0.013885	0.013275	-0.008392	
-0.009613	-0.011444	0.014801	-0.005951	
-0.006866	-0.004425	0.013885	-0.005646	
-0.009003	-0.003510	0.008392	-0.011749	
-0.002899	0.002289	0.004730	-0.009308	
0.000458	0.017242	0.010529	-0.006866	
0.003815	0.017853	0.008392	-0.005646	
0.002594	0.014496	0.011749	-0.009613	
0.000458	0.009308	0.006561	-0.012970	
0.008392	0.016937	0.019989	-0.001984	
0.004120	0.012970	0.022430	-0.009003	
0.011749	0.013275	0.031587	-0.002899	
0.009613	0.006256	0.009003	-0.006866	
0.016937	0.013885	-0.006866	0.001678	
0.012970	0.008698	-0.005951	-0.008392	
0.022125	0.020599	0.003815	-0.001984	
0.012054	0.015106	0.010834	-0.009308	
0.009918	0.019989	0.021210	-0.005341	
0.004730	0.023041	0.037385	-0.000763	
-0.003510	0.022125	-0.001678	-0.006256	
-0.003815	0.021820	0.035554	-0.004425	
-0.010834	0.010529	-0.034333	-0.011139	
-0.005646	0.010223	-0.118868	-0.007172	
-0.019073	-0.005646	-0.104525	-0.017853	
-0.018158	-0.013275	-0.030060	-0.006866	
-0.023041	-0.024261	0.019073	-0.005951	
-0.009613	-0.009918	0.077973	0.001678	
-0.006866	-0.011139	-0.008392	-0.009308	
0.004730	-0.002899	-0.205234	-0.009308	
0.011749	0.007172	0.128023	0.000153	
0.019073	0.021820	0.436866	0.007782	
0.020905	0.033418	0.301976	0.003815	
0.017853	0.038301	0.236973	-0.000763	
0.013885	0.032502	-0.074311	-0.002899	
0.006256	0.024567	-0.258335	0.000153	
-0.003510	0.014496	-0.145113	-0.000763	
-0.020294	-0.002899	-0.039216	-0.003204	
-0.022430	-0.009308	0.019989	0.002289	
-0.036164	-0.021210	-0.023956	-0.002899	
-0.046540	-0.030365	-0.021210	-0.003510	
-0.055390	-0.046540	-0.011139	-0.013885	
-0.049897	-0.051118	0.019379	-0.005951	
-0.049897	-0.056001	0.000458	-0.011139	
-0.032502	-0.041963	-0.026398	-0.006256	
-0.025177	-0.039521	-0.072480	-0.012054	
-0.012054	-0.026398	-0.023956	-0.015106	
-0.007782	-0.019989	0.016327	-0.021210	
-0.001678	-0.007172	0.037080	-0.017853	
0.001068	0.001984	0.043183	-0.019379	
0.009003	0.014191	0.029449	-0.012970	
0.008698	0.012054	-0.018463	-0.018463	
0.006256	0.012360	-0.074616	-0.025482	
0.008087	0.023346	-0.061494	-0.021820	
0.001678	0.019989	-0.082246	-0.018158	
0.003204	0.018158	-0.017548	-0.013580	
0.002899	0.021820	0.193332	-0.007477	
-0.001068	0.017853	0.216830	-0.005341	
-0.013580	-0.002289	0.038606	-0.017242	
-0.003815	0.005951	-0.033418	-0.008392	
-0.010834	0.003204	-0.036469	-0.009003	
-0.009003	0.000763	-0.008392	0.001068	
-0.003510	-0.003510	-0.019379	-0.003815	
0.009918	0.009308	-0.003204	-0.001678	
0.010529	0.009918	0.002594	-0.004120	
0.007782	0.011749	0.032807	0.001068	
0.002594	0.004730	0.033113	-0.005341	
0.005646	0.008392	0.038606	-0.004425	
0.003815	0.003204	0.022125	0.001678	
-0.004425	-0.002899	-0.002289	-0.003510	
-0.002899	-0.007782	-0.067597	-0.009003	
-0.001068	-0.009308	-0.145113	-0.009918	
-0.003815	-0.005035	-0.151827	0.000763	
-0.010223	-0.011139	-0.066987	0.002899	
-0.001068	0.008392	0.016327	0.013275	
-0.001984	0.010223	0.223545	0.008392	
-0.001068	0.016022	0.295262	0.001068	
-0.005646	0.014191	0.025177	-0.002289	
0.004730	0.021820	-0.050508	0.002899	
0.004730	0.020599	0.004730	-0.003204	
0.008087	0.019379	-0.028534	-0.005951	
0.000763	0.011749	-0.015717	-0.008392	
0.007782	0.012665	-0.014191	0.000763	
-0.001068	0.004730	-0.015106	-0.007477	
-0.000763	0.010223	-0.006866	-0.007477	
-0.003510	0.008698	-0.001373	-0.008392	
-0.009308	0.008087	0.011139	-0.011444	
-0.009003	0.007172	0.023346	-0.014496	
-0.009613	0.010529	0.043183	-0.017548	
-0.008392	0.012360	0.042573	-0.019379	
-0.013275	0.009918	0.024261	-0.020294	
-0.009003	0.013275	0.022125	-0.009613	
-0.015411	0.011749	0.009308	-0.005035	
-0.013580	0.024872	0.016937	0.000763	
-0.013885	0.028229	-0.031281	-0.005035	
-0.008392	0.036469	-0.081025	-0.004425	
-0.009613	0.020294	-0.078889	-0.008087	
-0.002289	0.014191	-0.021515	-0.005646	
-0.007477	0.008698	-0.026398	-0.003510	
-0.001678	0.008087	-0.002899	0.005951	
-0.008392	0.000153	0.023041	-0.000763	
-0.006256	-0.001068	0.026703	-0.001373	
-0.005341	0.002899	0.012665	-0.001373	
-0.000153	0.011139	0.024872	-0.002899	
0.001984	0.004730	0.041657	-0.005951	
-0.002899	-0.012054	0.032807	-0.008392	
0.002899	-0.015106	0.040437	-0.004120	
0.000763	-0.026093	0.030365	-0.012054	
-0.005035	-0.028534	0.021515	-0.013580	
-0.008392	-0.030365	0.014801	-0.013885	
-0.002289	-0.020905	0.005341	-0.009003	
-0.008392	-0.028534	0.002289	-0.008392	
-0.001984	-0.026093	-0.004120	-0.002899	
-0.002289	-0.012970	-0.005035	-0.003510	
-0.001373	-0.009613	0.014191	-0.009613	
-0.003815	-0.019379	0.029144	-0.011444	
-0.007782	-0.023041	0.001678	-0.007172	
-0.009308	-0.022125	0.004120	-0.005035	
-0.010223	-0.013580	-0.039521	-0.004425	
-0.005341	-0.003204	-0.044404	-0.000153	
-0.005951	0.005035	0.032807	-0.008392	
-0.010223	0.009918	-0.050508	-0.001068	
-0.016937	0.009003	-0.054780	0.001678	
-0.015106	0.008698	-0.006866	0.000153	
-0.020905	0.004120	0.003815	-0.008392	
-0.012360	0.013275	0.170138	-0.003510	
-0.015411	0.007172	0.119173	-0.008392	
-0.008392	0.014496	-0.029144	-0.007477	
-0.004425	0.013275	-0.049897	-0.011749	
0.000458	0.017853	0.038911	-0.000763	
-0.003204	0.017242	0.082551	-0.008392	
-0.003204	0.023346	0.132296	-0.010223	
-0.003510	0.024872	0.018158	-0.012054	
0.000458	0.034028	-0.078279	0.005951	
-0.000153	0.022430	-0.015411	0.003815	
0.001068	0.016022	-0.018463	-0.003204	
-0.003815	0.015717	0.054475	-0.010529	
-0.009003	0.012054	-0.104830	-0.009918	
-0.007782	0.017242	-0.059663	-0.005035	
-0.013580	0.008698	0.079499	-0.004425	
-0.007477	0.005951	0.107576	-0.005646	
-0.008087	0.000458	0.117342	-0.011444	
-0.003510	0.002899	0.174411	-0.003510	
-0.008392	-0.002899	0.040132	-0.007172	
-0.005341	0.002289	-0.021820	-0.009003	
-0.007782	-0.001984	-0.073091	-0.012054	
-0.003815	0.003204	-0.062104	-0.007782	
-0.008087	-0.002899	-0.063630	-0.015717	
-0.004425	-0.005951	-0.052033	-0.012360	
-0.001678	-0.002899	-0.031892	-0.010529	
0.000458	0.000763	-0.024261	-0.003510	
-0.006256	-0.007172	-0.023956	-0.009613	
-0.002289	-0.002899	-0.009003	-0.001984	
-0.005341	-0.005646	0.004730	-0.012360	
-0.001984	-0.001678	-0.018463	-0.008392	
-0.001068	-0.000763	-0.033418	-0.006256	
-0.005035	0.004425	-0.013580	-0.006256	
-0.001984	0.005646	0.021210	-0.003510	
-0.002289	0.002289	0.039521	-0.005951	
0.000763	0.002289	-0.021820	-0.009003	
-0.005951	-0.003815	-0.083161	-0.015411	
0.000763	0.007172	-0.052644	-0.007782	
-0.005646	0.000458	0.028229	-0.014496	
-0.004425	0.004425	0.084687	-0.009613	
-0.007477	-0.001068	0.037080	-0.009308	
-0.001984	0.008698	-0.015717	-0.001984	
-0.003510	0.010223	0.036775	-0.003204	
-0.005951	0.007172	0.063325	-0.005035	
-0.006866	0.004425	0.018158	-0.003510	
-0.002289	0.003815	-0.015411	-0.001984	
-0.005035	0.004425	-0.052339	-0.007172	
-0.005341	0.000763	0.009918	-0.013580	
-0.002289	-0.001068	0.117952	-0.011749	
-0.008087	-0.003815	0.038606	-0.011139	
-0.003815	0.002899	0.024872	-0.001984	
-0.008087	0.004120	0.080110	0.000153	
-0.006866	0.002594	0.055085	-0.003204	
-0.006256	-0.000153	0.021515	-0.008087	
-0.001678	0.007172	0.007172	-0.007172	
-0.007477	0.004120	0.000153	-0.017853	
-0.000153	0.006561	-0.005951	-0.014496	
-0.002289	0.006256	-0.035554	-0.017853	
-0.002899	0.015106	-0.011749	-0.012970	
-0.009613	0.014496	-0.010223	-0.009308	
-0.013885	0.004120	0.030670	-0.012054	
-0.013275	-0.003815	0.110323	-0.012970	
-0.011749	-0.011139	0.021210	-0.019684	
-0.004425	-0.008087	-0.043489	-0.011749	
-0.008392	-0.011749	0.001678	-0.011139	
-0.010223	-0.013580	0.018768	-0.011139	
-0.013580	-0.012360	-0.033418	-0.012360	
-0.003815	-0.001373	-0.128939	-0.004425	
-0.005341	-0.002899	-0.141756	-0.009003	
-0.000763	-0.003204	-0.012054	-0.003204	
0.000458	-0.001984	0.117952	0.001678	
0.006561	0.002899	0.051728	0.003204	
-0.002289	0.000763	0.001984	-0.002899	
-0.000153	0.010223	0.025177	0.001678	
-0.006256	0.003204	0.037080	-0.009613	
0.000458	0.011749	0.023041	-0.001068	
-0.005341	0.007172	0.001678	-0.000153	
-0.005035	0.006256	0.011749	-0.002899	
-0.008392	0.004120	0.041657	-0.006866	
-0.005951	0.004120	0.060884	-0.008087	
-0.004120	0.005035	-0.006866	-0.007477	
-0.002289	0.004730	0.063020	-0.007172	
-0.003204	0.004730	0.051423	0.000763	
-0.005341	0.002594	-0.011444	0.002594	
-0.001678	0.005951	0.015411	0.001678	
-0.012054	0.002289	-0.034638	-0.009003	
-0.003510	0.009308	-0.044099	-0.001984	
-0.007782	0.003204	-0.019989	-0.005951	
-0.004425	0.011749	-0.011139	0.001984	
-0.005341	0.010834	-0.011139	-0.007172	
0.001068	0.013885	0.021210	-0.011139	
0.005646	0.009308	0.020905	-0.015411	
0.005035	0.002289	-0.003204	-0.017853	
0.005035	0.001068	-0.056611	-0.019073	
0.003204	0.002594	-0.222324	-0.013275	
-0.000153	0.003204	-0.205234	-0.002899	
0.000153	0.001678	-0.118868	0.008392	
-0.001373	0.004730	0.021210	0.025177	
-0.007782	0.005646	0.360876	0.019989	
-0.005035	0.007172	0.311742	0.010223	
-0.007782	0.008392	0.045320	0.001068	
-0.009613	0.003815	0.110018	-0.000763	
-0.006256	0.000458	0.136263	0.000458	
-0.004425	0.001984	0.081635	-0.011139	
-0.010223	-0.002289	0.030060	-0.015411	
-0.005951	0.002899	0.019073	-0.010223	
-0.012054	-0.004120	-0.031587	-0.022125	
-0.011139	-0.007782	-0.029449	-0.016022	
-0.015411	-0.015717	-0.026093	-0.017853	
-0.014191	-0.020294	-0.040437	-0.014191	
-0.018463	-0.025177	-0.029755	-0.014191	
-0.007477	-0.005341	-0.004425	-0.009003	
-0.011139	-0.004425	-0.008392	-0.016327	
-0.005646	-0.001373	-0.055696	-0.016327	
-0.006866	-0.001068	-0.042573	-0.019073	
-0.001373	0.001984	-0.019989	-0.014496	
0.002289	0.004425	-0.010223	-0.009003	
-0.001984	0.008087	-0.017548	-0.010529	
-0.000763	0.015106	-0.008087	-0.001373	
-0.009613	0.003815	-0.005341	-0.009308	
-0.003815	0.000763	0.012665	-0.009613	
-0.005341	-0.001984	-0.004120	-0.013580	
0.001068	0.011139	-0.035859	-0.005646	
-0.002289	0.013885	-0.002289	-0.012054	
0.005035	0.016327	0.042268	-0.001984	
-0.005341	0.004425	0.069428	-0.005646	
-0.008087	0.003815	0.012665	-0.004120	
-0.007782	-0.004120	-0.107271	-0.003510	
-0.008392	-0.007782	-0.047761	-0.003510	
-0.013885	-0.009003	0.032197	-0.005951	
-0.012970	-0.001068	-0.019989	-0.003815	
-0.012054	-0.001068	-0.107271	-0.003815	
-0.009308	-0.005646	-0.068818	-0.009003	
-0.007172	0.000763	0.090180	-0.007477	
-0.007477	0.008698	0.184176	-0.005951	
-0.013275	0.004425	0.131380	-0.009308	
-0.017548	0.007172	0.015411	-0.009003	
-0.016022	0.015106	0.028839	-0.006866	
-0.031587	0.009308	0.040437	-0.014496	
-0.030975	0.017853	0.022430	-0.007782	
-0.025482	0.015717	-0.010223	-0.020294	
-0.003815	0.023041	-0.005951	-0.012054	
0.005035	0.006256	0.013275	-0.016022	
0.018463	0.007172	0.010834	-0.010529	
0.025177	0.001068	0.019379	-0.007172	
0.027313	-0.000763	0.073701	-0.011139	
0.028229	-0.007172	0.071259	-0.008392	
0.029755	-0.002899	-0.101473	-0.006866	
0.030670	-0.001373	-0.174716	-0.005646	
0.024872	-0.006256	-0.056306	0.005035	
0.026093	0.004730	0.117952	0.006561	
0.024872	-0.004120	-0.033113	-0.000153	
0.018768	-0.003204	-0.185092	0.000458	
-0.001984	-0.004120	0.004120	-0.005646	
-0.019073	-0.009613	0.127718	-0.001984	
-0.028229	-0.010834	0.149691	-0.002899	
-0.013885	0.002289	0.151827	0.002899	
-0.014191	0.006256	0.064546	-0.007477	
-0.002289	0.034028	-0.090791	-0.000763	
-0.009308	0.032197	-0.093843	-0.013275	
-0.007477	0.021820	0.009918	-0.007172	
-0.017853	0.001678	0.113680	-0.011139	
-0.012054	-0.011749	0.166781	-0.003815	
-0.012054	-0.013275	-0.001068	-0.002899	
-0.022430	0.000153	-0.033418	-0.009613	
-0.023041	0.016022	0.019989	-0.009003	
-0.034028	0.008087	-0.000763	-0.010529	
-0.041352	0.002899	-0.009918	-0.009613	
-0.046235	-0.005341	-0.017242	-0.016327	
-0.034028	0.000763	-0.003204	-0.005951	
-0.029144	-0.012054	-0.007477	-0.013275	
-0.017548	-0.015106	-0.014496	-0.011139	
-0.002899	-0.007172	-0.021820	-0.015106	
0.006561	0.005035	-0.045930	-0.012054	
0.000153	-0.005341	-0.019073	-0.017853	
0.008698	-0.005646	0.051423	-0.019989	
0.003204	-0.020905	0.028534	-0.013580	
0.012360	-0.012970	0.004120	0.009308	
0.013885	0.010529	0.033113	0.006866	
0.021210	0.030365	0.037385	0.002899	
0.012360	0.031892	-0.065766	0.008087	
-0.003510	0.036469	-0.108492	0.005341	
-0.005646	0.023041	0.061799	0.005951	
-0.016022	0.000458	0.056306	-0.001373	
-0.018463	0.008087	0.012054	0.000153	
-0.021210	0.001068	0.000458	-0.002289	
-0.011139	0.003815	-0.001068	0.003815	
-0.015717	0.016937	0.001068	-0.001373	
-0.013885	0.008698	0.009918	0.002289	
0.000153	-0.021820	0.024261	0.001068	
0.027008	-0.019379	0.020294	0.000763	
0.034028	-0.016937	-0.014191	-0.008087	
0.026398	-0.027008	0.013885	-0.004120	
0.027924	-0.023956	0.022736	-0.004120	
0.006866	-0.007172	0.034333	-0.005951	
-0.005341	-0.016937	0.068513	-0.009613	
0.005951	-0.006866	-0.009613	-0.015106	
0.014801	0.002594	-0.080720	-0.013580	
0.017853	0.002289	-0.056611	-0.007782	
0.001068	0.005035	-0.059663	-0.008392	
-0.038301	0.005951	-0.000763	-0.025482	
-0.060273	0.009918	0.091096	-0.019073	
-0.074311	0.029144	0.032807	-0.009613	
-0.063935	0.054780	0.115816	0.005035	
-0.048982	0.086518	0.077973	-0.003510	
-0.019073	0.111544	0.026093	-0.005646	
0.010529	0.071259	-0.009613	-0.008392	
0.024261	0.044404	-0.015106	0.022125	
0.019073	-0.015411	-0.043489	-0.009918	
0.014801	-0.022430	-0.012970	-0.010529	
0.009003	-0.025787	0.000763	0.004120	
0.020905	-0.038606	-0.000763	-0.009308	
0.054475	-0.033723	0.006256	-0.009003	
0.056611	-0.049592	0.007172	-0.014496	
0.037690	-0.071259	0.012970	-0.015106	
0.003204	-0.090486	0.010223	-0.013275	
-0.052033	-0.089875	0.005341	-0.014496	
-0.070954	-0.038301	0.000458	-0.015411	
-0.063325	0.009308	0.010529	-0.005951	
-0.046540	-0.005341	0.008392	-0.012054	
0.002899	-0.016022	0.005951	-0.010529	
0.032502	0.002289	0.000153	-0.009308	
0.032197	0.026703	0.005341	-0.003510	
-0.023651	0.010223	0.012054	-0.003510	
-0.024872	0.020294	0.027924	0.000763	
-0.007172	0.012970	0.019379	-0.032197	
0.005951	0.002289	-0.002899	-0.034638	
0.010529	-0.002289	-0.015717	-0.028534	
-0.000763	0.000458	-0.015717	-0.031892	
-0.006866	0.004730	0.000153	-0.066987	
-0.036164	0.023346	0.020294	-0.045625	
-0.048066	0.045014	0.026093	0.053864	
-0.043489	0.049897	0.022736	0.014496	
-0.042268	0.037385	0.030060	-0.200351	
-0.015411	0.005646	0.008698	-0.176547	
0.005035	-0.001068	0.011139	-0.090791	
0.004730	0.010834	0.023041	-0.090486	
0.016327	0.011749	0.030670	-0.086518	
0.007172	0.027008	-0.005951	0.021515	
0.020599	0.066682	-0.007782	0.233006	
0.029755	0.045320	-0.005951	0.159152	
0.040132	0.005951	0.001984	0.293431	
-0.012360	-0.045320	0.003204	0.201877	
-0.022430	-0.051728	0.010529	-0.039521	
-0.033113	-0.005035	-0.001068	-0.149385	
-0.064240	0.040437	-0.014496	-0.207980	
-0.028839	0.056916	0.001678	-0.044404	
0.012970	0.082856	0.037385	0.088349	
0.044404	0.090486	0.050202	0.035859	
0.063020	0.113070	0.020294	-0.078889	
0.065766	0.072480	0.000458	-0.033723	
0.010529	0.036164	0.012360	0.186923	
-0.016327	-0.000153	0.012360	0.141146	
-0.018158	-0.049287	0.002899	0.036775	
-0.041963	-0.012054	0.000153	0.063630	
-0.023956	0.117647	-0.007477	0.099031	
-0.007477	0.132906	-0.001984	0.034638	
-0.046235	0.016632	-0.001984	-0.027924	
-0.091096	-0.042268	0.010834	-0.005035	
0.009918	-0.081635	0.004425	0.051423	
0.164645	-0.007782	-0.005646	0.051728	
0.230564	0.050813	-0.000153	0.087434	
0.151522	0.033113	0.006256	0.052644	
-0.032502	-0.071565	0.034333	0.039521	
-0.104525	-0.173190	0.027008	-0.088349	
-0.066377	-0.222935	0.014191	-0.136263	
-0.045014	-0.172275	0.012970	-0.080415	
-0.054170	-0.122835	0.014191	-0.048676	
-0.037690	-0.103609	0.020599	0.000763	
-0.009003	-0.124666	0.016327	-0.003510	
0.009003	-0.105745	-0.009613	-0.005951	
0.026093	-0.020905	-0.008087	-0.004425	
0.006561	-0.005035	0.026398	-0.002289	
0.007782	0.014496	0.060578	0.034638	
-0.010223	0.007782	0.001068	-0.012970	
-0.050508	0.087129	-0.023956	-0.127108	
-0.130465	0.149691	-0.016022	-0.228733	
-0.097506	0.145723	0.027924	-0.151522	
-0.033723	0.114595	0.030060	-0.093843	
0.049287	0.221104	0.029144	-0.128328	
0.106050	0.309606	0.007782	-0.111238	
0.114290	0.168612	-0.003815	-0.127413	
0.084687	0.000458	-0.001678	-0.162204	
0.019073	-0.134127	0.001984	-0.152132	
-0.076447	-0.208591	0.006866	-0.169223	
-0.099031	-0.176242	-0.003204	-0.184176	
-0.043794	-0.125887	0.023956	-0.001068	
-0.045320	-0.104830	0.034638	0.253452	
-0.102388	-0.066682	0.027313	0.360571	
-0.169528	-0.051118	-0.002899	0.100557	
-0.142061	0.000458	-0.009003	0.003815	
-0.099031	0.063630	-0.011749	0.124666	
-0.069734	0.084077	0.008698	0.120699	
-0.037080	0.042573	0.020294	0.071870	
0.002899	0.046235	0.016937	0.097811	
0.011749	0.087739	-0.013275	0.012665	
0.030975	0.079194	-0.057527	-0.287938	
0.027008	0.036775	-0.050202	-0.286412	
0.056001	0.006561	-0.002899	-0.204623	
0.051728	-0.029449	0.022125	-0.103304	
0.009003	-0.045625	0.012665	-0.029449	
-0.009613	-0.050202	0.028839	0.014496	
-0.001068	-0.043794	0.076753	0.214389	
0.016327	-0.029449	0.071870	0.442359	
0.008698	-0.033418	0.028839	0.464026	
-0.007172	-0.018158	0.016327	0.371557	
-0.006866	-0.011139	-0.013580	0.163424	
0.046540	0.022736	-0.026093	0.016327	
0.071870	0.050508	-0.037995	-0.028534	
0.065156	0.054170	-0.043183	-0.028839	
0.036775	0.041963	-0.046540	-0.170138	
0.025177	0.041047	-0.029755	-0.276340	
0.022430	0.037080	0.013275	-0.341039	
0.015106	0.032502	0.050508	-0.199740	
0.006866	0.027008	0.059358	0.087434	
0.005646	0.022430	0.041352	-0.038911	
0.003815	0.022125	0.018463	-0.148165	
-0.000153	0.022430	-0.007477	-0.127108	
-0.003510	0.018768	-0.012054	-0.063325	
-0.009613	0.009918	0.009003	0.258945	
-0.010223	0.005035	0.002899	0.474709	
-0.013885	0.005035	-0.015106	0.189670	
-0.011139	0.003204	-0.001984	-0.189364	
-0.015106	-0.001678	0.000763	-0.178073	
-0.010223	0.004120	0.005341	0.125887	
-0.012970	0.000763	0.011749	0.048066	
-0.005035	-0.001068	0.018463	-0.073396	
-0.006866	-0.011444	0.010223	-0.031892	
-0.003204	-0.001984	-0.005341	0.039216	
-0.008087	-0.009308	-0.013885	0.005951	
-0.001984	-0.006256	-0.005951	0.016327	
-0.000763	-0.007172	-0.005341	0.093537	
-0.002289	-0.007782	-0.000763	0.000763	
0.001068	-0.001373	0.027924	-0.043489	
-0.005035	-0.009918	0.023956	-0.114290	
-0.005951	-0.000763	0.002899	-0.169833	
-0.009918	-0.011139	0.010834	-0.139925	
-0.011749	-0.013580	0.030975	-0.041657	
-0.013885	-0.015106	0.013885	-0.011749	
-0.024872	-0.012970	0.006866	0.002899	
-0.037385	-0.023346	0.004120	-0.015106	
-0.031892	-0.015717	0.007782	-0.011749	
-0.021820	-0.019379	-0.001068	-0.040437	
-0.006866	-0.019989	0.004730	-0.055085	
-0.009003	-0.015717	0.000458	-0.037385	
-0.005341	-0.015717	-0.000763	-0.013885	
0.007782	-0.004120	0.002289	-0.022125	
0.016327	0.010834	0.010223	-0.016022	
0.009003	0.012054	0.009308	-0.016632	
0.006256	0.016632	0.005951	-0.025482	
0.003204	0.014801	0.002899	-0.069428	
0.002289	0.013275	0.001984	-0.175021	
0.000763	-0.008392	0.006256	-0.146944	
0.000763	-0.027924	0.010529	0.011444	
0.006256	-0.029144	0.020599	-0.017242	
0.001068	-0.028534	0.022125	0.024872	
-0.005035	-0.030060	0.014801	0.157931	
-0.008087	-0.042268	0.008392	0.108187	
-0.010223	-0.049287	0.014191	0.021210	
-0.017242	-0.052339	0.031281	0.002289	
-0.009613	-0.047151	0.034028	-0.002899	
-0.011749	-0.038606	-0.063020	-0.012970	
-0.001984	-0.019073	-0.070039	-0.008087	
0.000763	-0.008392	-0.005646	0.002899	
0.003204	0.014801	0.004730	0.010529	
-0.001984	0.022736	-0.021210	-0.012054	
-0.003815	0.029144	0.000153	-0.017548	
0.000763	0.037995	-0.050202	0.000763	
-0.002899	0.035249	0.045625	0.005341	
-0.004120	0.033418	0.090791	-0.002899	
-0.007477	0.035249	0.146334	-0.007172	
-0.003510	0.034944	0.243687	-0.001678	
-0.009308	0.039826	0.287023	-0.003204	
-0.002899	0.049287	-0.061494	0.007172	
-0.007477	0.043183	-0.308995	0.012360	
0.000763	0.045930	-0.165866	0.023041	
-0.004425	0.036164	-0.066987	0.004120	
0.005035	0.041352	-0.050508	-0.000153	
0.000458	0.032197	-0.312963	0.010834	
0.000458	0.030670	-0.100863	0.025177	
-0.010223	0.013885	0.224155	0.000458	
-0.019073	0.002899	0.430457	-0.020294	
-0.019989	0.003204	0.266575	-0.031281	
-0.014191	0.011749	0.267490	-0.016327	
-0.010223	0.015717	0.015411	-0.007172	
-0.013275	0.007782	-0.010834	0.005035	
-0.013885	0.005035	-0.090791	0.016022	
-0.009308	0.004730	-0.250706	-0.007172	
-0.003204	0.013885	-0.215915	-0.013275	
-0.009613	0.000763	-0.098116	0.002289	
0.001678	0.006866	0.136263	0.016022	
-0.006256	0.000153	0.149691	-0.012360	
-0.003815	0.004730	0.019379	-0.012970	
-0.003815	0.009003	0.047761	-0.009003	
-0.004120	0.006561	0.128328	0.004120	
-0.000153	0.010529	-0.145113	0.008698	
0.006256	0.018768	-0.132601	0.012360	
0.005035	0.017242	0.102999	-0.002899	
0.007172	0.016022	0.117647	-0.017853	
0.002289	0.010223	-0.049287	-0.009308	
-0.001984	0.003204	-0.072175	0.003815	
-0.005341	-0.006866	-0.159152	-0.004120	
-0.002899	-0.007172	-0.146334	-0.019379	
-0.002289	-0.016327	0.230564	-0.016022	
-0.009613	-0.023651	0.124056	-0.000763	
-0.004120	-0.023956	-0.064546	0.014801	
-0.001678	-0.021820	0.017853	0.009308	
-0.004425	-0.014801	0.189975	-0.000763	
-0.006256	-0.017548	0.192416	-0.016632	
-0.008087	-0.019379	-0.124666	-0.014496	
-0.012054	-0.024261	-0.038301	-0.016022	
-0.003815	-0.010223	-0.031281	-0.009613	
-0.004120	-0.009613	-0.155184	-0.013580	
-0.000153	0.000153	-0.146334	-0.019684	
-0.006866	0.000458	0.084687	-0.027313	
0.000458	0.016327	0.143587	-0.013275	
-0.001678	0.018768	0.139925	-0.012970	
-0.001373	0.024567	0.099337	-0.013275	
-0.003510	0.018768	0.013275	-0.008392	
-0.003204	0.019379	0.005341	0.003204	
-0.009308	0.010223	0.018463	-0.003815	
-0.015106	-0.000763	-0.005035	-0.011139	
-0.023346	-0.017548	-0.095980	-0.017853	
-0.023651	-0.024261	-0.124666	-0.015717	
-0.021210	-0.019989	-0.118258	-0.011749	
-0.024261	-0.015717	0.001068	-0.008392	
-0.010834	0.003815	0.038911	0.001068	
-0.017242	-0.002899	0.014191	-0.014191	
-0.013580	0.000153	0.037080	-0.008392	
-0.024261	-0.006866	-0.017242	-0.015106	
-0.016937	-0.003204	-0.193637	-0.010529	
-0.016327	-0.003204	-0.254063	-0.012970	
-0.014801	-0.005341	-0.077973	-0.005646	
-0.013885	0.003204	0.311131	-0.002899	
-0.009613	0.012054	0.081635	-0.004425	
-0.009308	0.007172	-0.130159	-0.005951	
-0.011749	0.004730	-0.011444	-0.007782	
-0.008392	0.004730	0.018463	-0.005646	
-0.006866	0.001984	0.214999	-0.009613	
0.002594	0.016937	0.249790	-0.004120	
-0.003510	0.020294	0.200656	0.001678	
-0.001068	0.024872	0.122530	0.008087	
0.005951	0.026703	-0.089265	-0.000763	
0.012054	0.031281	-0.021515	-0.001678	
0.008392	0.021820	0.081330	-0.011749	
0.013275	0.023956	-0.037690	-0.007782	
0.008087	0.012970	-0.018158	-0.009918	
0.014801	0.015106	0.012970	-0.003815	
0.006256	0.003815	0.007172	-0.014496	
0.011139	0.007172	0.008087	-0.005341	
0.003204	-0.003510	-0.024261	-0.009918	
0.004120	-0.003815	-0.031892	-0.004120	
0.004120	-0.006866	-0.040437	-0.006256	
-0.002289	-0.012360	-0.037690	-0.009308	
0.006256	-0.007172	-0.018158	-0.004120	
0.005951	-0.015717	-0.018158	-0.005035	
0.007172	-0.012054	-0.010223	-0.000763	
-0.000153	-0.018463	-0.015411	-0.009308	
0.008392	-0.007782	-0.007172	-0.002289	
0.006866	-0.012360	-0.008392	-0.007172	
0.010834	0.000458	-0.000763	-0.000153	
0.009003	0.000153	0.000153	-0.005341	
0.015106	0.012665	0.007172	-0.003815	
0.012665	0.016022	0.004120	-0.007477	
0.011749	0.013885	0.008087	-0.001678	
0.003204	0.009003	0.007782	-0.007782	
0.005951	0.014496	0.012970	-0.005035	
0.001984	0.014191	0.016327	-0.005035	
-0.006256	0.010223	0.014191	-0.005035	
-0.011444	0.006256	0.018768	-0.001678	
-0.013580	0.006256	0.014496	-0.006866	
-0.017242	0.006561	0.016327	-0.007172	
-0.020294	0.004425	0.012054	-0.011139	
-0.013580	0.012970	0.014496	-0.005951	
-0.010834	0.006256	0.012970	-0.007477	
-0.009613	0.005951	0.018463	-0.008392	
-0.014801	-0.003204	0.011139	-0.012360	
-0.011139	-0.001373	0.016937	-0.007477	
-0.015106	-0.002289	0.012665	-0.011139	
-0.009003	0.008392	0.018158	-0.003510	
-0.013885	0.008698	0.017853	-0.005035	
-0.013275	0.019379	0.016022	-0.005341	
-0.009613	0.021820	0.013885	-0.002899	
-0.008392	0.016327	0.008392	-0.010223	
-0.010834	0.019073	0.009918	-0.009918	
-0.010834	0.012970	0.014496	-0.005341	
-0.010834	0.010529	0.021515	-0.000763	
-0.011139	0.007172	0.012665	-0.005035	
-0.000153	0.015106	0.016327	-0.001678	
-0.007477	0.010834	0.007782	-0.014191	
-0.009308	0.013885	0.014191	-0.009003	
-0.012360	0.010529	0.012665	-0.007172	
-0.005951	0.012054	0.012970	-0.004120	
-0.005646	0.008087	0.008698	-0.012970	
0.004730	0.015106	0.016327	-0.005951	
-0.002899	0.005035	0.012054	-0.009918	
-0.001068	0.006866	0.010529	-0.003510	
-0.007477	-0.007172	0.002289	-0.015106	
0.001068	-0.003204	0.006256	-0.011749	
0.000153	-0.001984	0.007782	-0.010529	
-0.004425	-0.007477	0.006866	-0.004425	
-0.008087	-0.006256	0.005341	-0.004425	
-0.006866	-0.006256	0.005341	-0.005035	
-0.001984	-0.010223	0.007782	-0.006866	
-0.010223	-0.015411	0.006866	-0.005646	
-0.009613	-0.013885	0.012665	0.000458	
-0.014801	-0.026398	0.003204	-0.007782	
-0.007782	-0.017242	0.009308	-0.005646	
-0.006866	-0.019379	0.005951	-0.009918	
-0.002289	-0.014191	0.006561	-0.009918	
-0.005951	-0.006866	0.004425	-0.009308	
0.000458	-0.001068	0.002899	-0.007477	
-0.009613	-0.005951	-0.003204	-0.009613	
-0.003204	-0.002899	0.002289	-0.001373	
-0.009613	-0.008087	0.000763	-0.009003	
-0.001068	0.002899	0.013275	-0.001984	
-0.007782	-0.006256	0.017853	-0.014191	
-0.005646	-0.005341	0.002594	-0.008392	
-0.004120	-0.002899	0.001068	-0.003510	
-0.003815	-0.000763	0.016327	0.002594	
-0.005646	0.000153	-0.009613	-0.001984	
-0.003815	-0.000153	-0.052033	-0.008087	
-0.002899	0.000458	-0.070344	-0.011444	
-0.009918	-0.006256	0.014191	-0.015106	
-0.000153	0.002899	0.107576	-0.006866	
-0.004120	0.000763	0.087434	-0.009003	
-0.001678	0.007172	0.046540	-0.000763	
-0.011749	0.001678	0.004730	-0.011444	
-0.008087	0.008087	-0.014496	-0.009918	
-0.006256	0.004120	0.002899	-0.011444	
-0.002899	0.019073	0.012665	-0.006866	
-0.005035	0.028839	0.007782	-0.009003	
-0.001678	0.017242	-0.001068	-0.006866	
-0.007477	0.003204	-0.000153	-0.014191	
-0.009613	-0.001984	0.017853	-0.011139	
-0.010834	-0.001068	0.026093	-0.007172	
-0.013885	0.009308	0.034333	-0.004120	
-0.022430	0.000458	0.012665	-0.005646	
-0.023346	0.003815	-0.026398	-0.000763	
-0.019684	0.012665	-0.029144	0.002594	
-0.022125	0.005035	-0.019989	-0.006256	
-0.015717	0.018158	-0.017242	-0.000763	
-0.016327	0.011749	-0.076142	-0.009918	
-0.012054	0.008087	-0.019684	-0.009918	
-0.011749	0.004425	0.083772	-0.000763	
-0.005646	0.010529	0.125582	0.006256	
-0.009308	0.002899	0.077363	-0.013275	
-0.001068	0.004730	-0.041352	-0.010529	
0.000458	-0.001678	-0.076142	-0.007477	
0.009918	0.000153	0.057221	-0.001984	
0.002594	-0.003815	0.001984	-0.005035	
0.004730	-0.000153	-0.136263	-0.008392	
0.008087	0.000458	-0.025482	-0.009308	
0.005646	-0.005646	0.042268	-0.010529	
0.005646	-0.002289	0.017853	-0.003510	
0.007782	-0.003510	0.042268	-0.001373	
0.011749	0.001678	0.038606	0.000763	
0.001678	0.000458	0.016022	-0.009308	
0.005035	-0.001984	0.042268	-0.003510	
-0.002289	-0.009308	0.035554	-0.005646	
-0.003815	-0.008392	0.024872	-0.000763	
-0.011749	-0.006256	0.010529	-0.003510	
-0.005341	0.003204	-0.019073	-0.005341	
-0.013275	-0.009918	-0.020599	-0.010529	
-0.003815	-0.002289	-0.007477	-0.007782	
-0.008087	-0.005646	-0.080720	-0.014191	
0.000458	0.005035	-0.092317	-0.003204	
-0.003204	-0.003204	0.143892	-0.011139	
-0.006866	-0.004120	0.250401	-0.015717	
-0.001068	0.004425	-0.014496	-0.000153	
-0.005035	0.002899	-0.037690	-0.000153	
-0.001678	0.012970	-0.074616	-0.003510	
-0.010223	0.014496	-0.035249	-0.015106	
-0.007477	0.011749	0.047151	-0.014496	
-0.013580	0.006256	-0.044099	-0.019989	
-0.007477	0.012360	-0.135653	-0.007782	
-0.011444	0.000458	-0.120699	-0.019684	
-0.004425	0.002289	0.014191	-0.011139	
-0.003815	-0.004120	0.122225	-0.011749	
0.006866	-0.001984	0.055390	-0.005341	
0.005951	-0.001373	0.168612	-0.007172	
0.012970	0.010223	0.186923	0.000153	
0.008087	0.013885	0.057221	0.005035	
0.011139	0.022736	0.002289	0.008698	
0.007172	0.021820	-0.041657	0.002289	
0.006866	0.020599	-0.021515	0.001068	
0.003204	0.018768	-0.074311	-0.001984	
-0.006866	0.007782	-0.073091	-0.010223	
-0.009003	0.004730	-0.005035	-0.010529	
-0.019073	-0.005646	-0.006256	-0.010529	
-0.019684	-0.011444	-0.003815	-0.003510	
-0.026093	-0.025787	-0.011444	-0.005951	
-0.023346	-0.025787	-0.027924	0.008698	
-0.027618	-0.033113	-0.066072	0.009308	
-0.028839	-0.029449	0.041657	0.005951	
-0.020294	-0.022125	0.085908	-0.000153	
-0.012054	-0.012970	0.049287	-0.005035	
-0.016327	-0.015106	0.004120	-0.019989	
-0.005951	0.000458	0.012665	-0.009918	
-0.009308	0.000153	-0.015106	-0.009003	
-0.009003	0.004730	-0.032502	-0.011749	
-0.004120	0.008087	0.016022	-0.009003	
-0.009308	0.004425	0.008698	-0.013885	
-0.003204	0.007172	0.027924	-0.014496	
-0.006256	0.007172	0.034333	-0.014496	
-0.003815	0.008087	0.004425	-0.015106	
-0.001984	0.008392	-0.009918	-0.016022	
0.000763	0.016022	-0.041963	-0.010223	
-0.006256	0.005035	-0.048066	-0.017242	
0.003815	0.014496	-0.002899	-0.003204	
-0.002289	0.010529	0.040742	-0.007782	
-0.002899	0.014496	0.085298	-0.013275	
-0.006256	0.009308	0.053559	-0.017853	
0.000153	0.016632	0.053559	-0.007477	
-0.008087	0.010834	0.056611	-0.013275	
0.002899	0.017242	0.002899	-0.003815	
-0.000763	0.010834	-0.037995	-0.009308	
-0.000763	0.020905	-0.011139	-0.007477	
0.004730	0.017853	-0.023651	-0.008087	
0.003204	0.010223	-0.024567	-0.007477	
-0.002289	0.005951	0.021210	-0.005035	
0.002594	0.005646	0.062409	-0.003510	
0.002594	0.006866	0.021515	0.000458	
-0.001068	0.004730	0.003204	-0.006256	
0.006561	0.012054	-0.003815	-0.003510	
0.005951	0.007172	-0.007477	-0.004425	
-0.000763	0.002899	0.012054	-0.009308	
-0.001068	0.010223	-0.020294	-0.012054	
0.002594	0.012970	0.020905	-0.009308	
-0.001984	0.008087	0.021515	-0.007172	
0.003204	0.012360	0.028534	-0.000763	
-0.005951	-0.000763	0.032807	-0.013275	
-0.002899	0.012360	-0.003204	-0.005646	
-0.003815	0.009003	-0.021820	-0.011444	
-0.004425	0.008087	0.024261	-0.004120	
-0.013885	0.000763	0.024872	-0.009003	
-0.010223	0.004730	-0.019989	-0.002289	
-0.005646	0.007782	-0.047761	-0.001373	
-0.007782	0.002594	0.012665	-0.010223	
-0.003204	0.003204	0.041352	-0.005646	
-0.009613	0.001678	-0.009613	-0.003510	
-0.007782	0.004425	-0.007477	-0.000763	
-0.007172	0.004425	-0.051423	-0.005341	
-0.002289	0.011139	-0.017548	0.000763	
-0.012054	0.003204	0.063020	-0.003510	
-0.010834	0.012360	0.076753	0.006561	
-0.011139	0.004120	-0.002899	0.002594	
-0.005035	0.004730	0.031587	0.009308	
-0.013580	0.003204	0.009918	-0.004425	
-0.009613	0.008392	0.011139	-0.007172	
-0.003204	0.008698	0.018463	-0.005951	
-0.007477	0.010529	0.025177	-0.011444	
-0.006866	0.010223	0.054475	-0.015106	
-0.007477	0.009003	0.040742	-0.007782	
-0.005035	0.005035	0.012665	-0.008087	
-0.004425	0.000458	-0.005341	-0.011749	
-0.005951	0.000458	-0.019379	-0.009918	
-0.003815	0.001984	-0.036775	-0.011444	
-0.001678	0.001984	-0.043489	-0.009918	
-0.006866	-0.005951	-0.014496	-0.013275	
-0.000153	-0.007172	0.050508	-0.005035	
-0.008392	-0.006256	0.035554	-0.012054	
-0.001373	0.001068	0.026703	-0.009918	
-0.009003	-0.004425	-0.025482	-0.005035	
-0.003204	0.004120	-0.101168	0.002289	
-0.005951	0.000153	-0.069123	-0.007172	
-0.005035	0.002289	0.069123	-0.002899	
-0.005341	-0.004120	0.211947	-0.005035	
-0.003204	-0.004120	0.087129	-0.005646	
-0.008087	-0.005341	-0.013580	-0.005646	
-0.008087	-0.004120	-0.020599	-0.007172	
-0.006866	-0.009918	-0.054475	-0.010223	
-0.000763	-0.008392	-0.069123	-0.008392	
0.001068	0.000458	-0.074311	-0.010529	
-0.003815	-0.001068	-0.053559	-0.010223	
-0.001984	0.002289	-0.007782	-0.011139	
-0.005035	0.003815	0.022736	-0.015411	
-0.000153	0.005035	0.195163	-0.003510	
-0.005035	-0.000153	0.154879	-0.005341	
-0.003510	0.009003	0.040742	-0.001984	
-0.005341	0.004120	-0.066377	-0.013580	
0.001068	0.008087	-0.067597	-0.010529	
-0.003510	0.003815	0.046235	-0.011139	
0.002594	0.012054	0.043183	-0.001068	
-0.001678	0.010223	-0.009308	-0.003815	
0.000153	0.014191	0.017242	0.000458	
-0.002899	0.011749	0.038606	-0.003510	
-0.002899	0.018768	0.040742	-0.005646	
-0.006866	0.016632	0.037080	-0.004425	
-0.009003	0.009003	0.021210	0.000153	
-0.006256	0.005035	0.006256	0.001678	
-0.012360	-0.003204	-0.049592	-0.005035	
-0.008087	0.002899	-0.050508	-0.001984	
-0.010834	-0.005035	-0.026398	-0.011749	
-0.003510	0.000763	-0.027313	-0.006256	
-0.005951	-0.003815	-0.056001	-0.015106	
-0.001984	0.001984	-0.001068	-0.003204	
-0.009308	0.001068	0.020294	-0.003510	
-0.003815	0.006256	0.054780	-0.000763	
-0.007782	-0.003204	-0.027008	-0.005951	
-0.006256	0.000458	-0.003510	-0.009918	
-0.008087	-0.000153	-0.013275	-0.011139	
-0.005341	0.001984	0.004730	-0.010223	
-0.005341	0.004425	0.030975	-0.007172	
-0.000763	-0.001373	0.037080	0.000153	
-0.000153	-0.002899	0.016022	0.001678	
-0.003510	-0.004120	0.032807	-0.002899	
0.003815	0.002594	0.009918	-0.001373	
-0.007782	-0.000153	0.046845	-0.011444	
-0.000153	0.001678	0.027313	-0.012054	
-0.001678	-0.000763	-0.007477	-0.014496	
-0.000153	0.002289	-0.047456	-0.011139	
-0.006866	-0.001984	-0.060578	-0.009918	
-0.005341	0.001984	-0.052033	-0.004425	
-0.005341	0.000763	-0.025177	-0.016327	
-0.003204	0.006256	0.036775	-0.011749	
-0.006866	0.003815	0.025482	-0.011749	
-0.004425	0.004425	0.028534	-0.005646	
-0.008392	-0.001984	0.013275	-0.011139	
-0.000153	-0.000153	-0.021210	-0.007172	
-0.003204	-0.002899	-0.016937	-0.011444	
-0.003204	-0.002899	0.024872	-0.010529	
-0.007172	0.000458	0.099031	-0.005035	
-0.008087	-0.005646	0.116121	-0.016327	
0.002594	0.006561	-0.058747	-0.009003	
-0.006866	0.000153	-0.116121	-0.010529	
-0.002899	0.007172	-0.038301	0.000763	
-0.007172	-0.000153	0.055390	-0.004120	
-0.000153	0.005951	0.058747	-0.001373	
-0.006866	-0.000763	-0.008392	-0.006866	
0.000153	0.013885	0.087434	-0.003510	
-0.009003	0.007782	0.077058	-0.007477	
-0.000763	0.014191	0.021515	-0.000153	
-0.009613	0.006256	0.019073	-0.006866	
-0.005646	0.005646	-0.020294	-0.006256	
-0.008087	0.002289	-0.118258	-0.013275	
-0.009308	0.000458	-0.181735	-0.009918	
-0.008087	0.001678	-0.125582	-0.003204	
-0.007782	0.003204	0.112459	-0.004120	
-0.010223	-0.002289	0.293736	-0.005951	
-0.010834	-0.007477	0.090791	-0.004120	
-0.005035	0.001984	0.042878	-0.005951	
-0.004120	0.001984	0.054780	-0.009918	
0.001068	0.005035	0.020599	-0.003510	
-0.002899	0.003204	-0.013885	-0.005646	
0.000458	0.003815	0.001984	-0.002899	
-0.007172	0.001068	0.027008	-0.003204	
-0.005646	0.008698	0.014801	0.000458	
-0.007172	0.003815	0.005341	-0.007172	
-0.005951	0.008392	-0.023956	-0.008087	
-0.005646	0.012360	-0.027618	-0.011444	
-0.003510	0.006256	0.030975	-0.005951	
-0.003815	0.005951	0.000763	-0.004120	
-0.003204	0.004425	-0.035859	-0.000153	
0.000458	0.008392	-0.033113	0.003815	
-0.001678	0.007782	-0.061494	0.001678	
-0.003510	0.011749	-0.064546	-0.003204	
-0.005035	0.020905	-0.052644	-0.006866	
-0.003204	0.022736	-0.084077	-0.001678	
-0.006866	0.012360	-0.104219	-0.005646	
-0.007477	0.009308	-0.003204	-0.003510	
-0.020905	0.000763	0.139925	-0.007782	
-0.008392	0.004120	0.179904	0.002594	
-0.016022	-0.011139	0.063630	-0.003204	
-0.021820	-0.014801	0.105440	-0.001984	
-0.016022	-0.013580	-0.030365	-0.005951	
-0.001068	-0.004120	0.084992	-0.005951	
0.003204	-0.009918	0.094149	-0.016632	
0.013275	-0.009308	0.023346	-0.016022	
0.010834	-0.009918	-0.005035	-0.010529	
0.005951	-0.007172	0.005951	-0.012360	
0.007782	-0.007172	0.027924	-0.012054	
-0.002289	-0.012970	-0.064240	-0.010529	
-0.010834	-0.012970	-0.027008	-0.016327	
-0.012054	-0.008392	-0.008392	-0.019073	
-0.014801	-0.006256	-0.006866	-0.022430	
-0.015411	-0.001068	0.023346	-0.018463	
-0.012054	0.003204	0.046540	-0.013885	
-0.012360	-0.004120	0.050202	-0.013580	
-0.002289	0.005951	-0.004425	-0.006866	
-0.008392	0.008392	-0.040437	-0.013275	
-0.007782	0.009308	-0.059968	-0.004120	
-0.011749	0.002899	-0.038301	-0.010529	
0.000763	0.013885	-0.036775	-0.005951	
0.001984	0.010834	-0.031587	-0.013275	
0.002899	0.016022	0.005951	-0.005035	
-0.007782	0.001678	0.020294	-0.007172	
-0.005951	-0.003510	-0.013580	-0.008087	
-0.003204	-0.009308	-0.017242	-0.007782	
-0.012360	-0.011139	-0.001373	-0.009918	
-0.028229	-0.009918	0.010223	-0.005646	
-0.035249	-0.011139	0.007172	-0.003510	
-0.026398	0.000153	-0.000763	-0.006866	
-0.030975	-0.012054	-0.015106	-0.013885	
-0.015411	-0.005035	0.017853	-0.001373	
-0.001068	-0.002289	-0.066072	0.000153	
0.013275	0.004120	-0.041657	0.002289	
0.014191	-0.001068	0.145723	-0.003204	
0.028534	-0.000763	0.200046	0.000458	
0.030975	0.003815	0.000153	0.005035	
0.029144	0.005646	0.044404	0.008087	
0.020599	0.001678	0.042878	0.000763	
0.022736	-0.001068	0.037385	0.008087	
0.016937	-0.002899	0.012970	-0.001678	
0.014801	0.004425	-0.004120	0.001068	
0.007782	0.010223	-0.008087	0.003815	
-0.001984	0.020294	-0.005951	0.002289	
-0.016022	0.029144	-0.000763	0.001984	
-0.023956	0.023956	-0.006256	-0.004120	
-0.012054	0.032197	-0.001678	-0.000763	
-0.018463	0.025787	-0.014191	-0.010529	
-0.016022	0.027313	0.005341	-0.000153	
-0.017242	0.020294	0.011749	-0.005951	
-0.011139	0.030975	-0.004425	-0.005646	
-0.020905	0.020905	-0.000153	-0.009918	
-0.014801	0.003204	0.005951	-0.005646	
-0.015106	-0.000153	-0.019684	-0.013275	
-0.005341	0.010223	-0.034028	-0.005646	
0.000763	0.006256	-0.019989	-0.005341	
0.002594	0.009003	0.021210	-0.002289	
-0.009003	0.002289	0.064851	-0.005341	
-0.017853	0.001068	0.025177	-0.010529	
-0.021210	-0.000153	0.058747	-0.011139	
-0.019379	0.000153	-0.025787	-0.002289	
-0.005341	0.020905	-0.080415	0.005951	
0.007782	0.014191	-0.054780	0.009003	
0.010834	0.003815	0.074616	0.005035	
0.001068	0.008392	0.080720	-0.002899	
-0.013580	0.021820	0.003815	-0.008087	
-0.028839	0.016937	0.074616	-0.021515	
-0.023956	0.007172	0.027924	-0.017853	
-0.027924	-0.014801	0.009308	-0.025177	
-0.017242	-0.019073	-0.000153	-0.019684	
-0.002289	-0.006256	-0.066682	-0.027313	
0.040742	0.024567	-0.097811	-0.019379	
0.037995	0.012970	-0.147249	-0.020294	
0.035249	0.014191	-0.095064	-0.000763	
0.026398	-0.006866	0.328221	-0.007477	
0.015717	-0.013885	0.214084	-0.013275	
-0.000763	-0.017853	-0.040437	-0.011444	
-0.035554	-0.030975	-0.088044	-0.005341	
-0.037080	0.005035	-0.033418	0.006866	
-0.021820	0.025787	0.102083	-0.003510	
-0.003510	0.036164	0.049287	-0.005341	
0.026093	0.033113	-0.027313	-0.010223	
0.043183	0.035859	0.041657	-0.008392	
0.031892	0.059052	0.059052	-0.006866	
0.008087	-0.018463	0.031281	-0.005035	
-0.011139	-0.080110	-0.000153	-0.005035	
-0.022125	-0.089265	0.006256	0.000458	
-0.018158	-0.076142	0.009308	-0.005951	
-0.016022	-0.084077	0.002594	-0.008087	
-0.019379	-0.099337	-0.008392	-0.008392	
-0.003815	-0.076142	-0.023956	-0.003510	
-0.016937	-0.052033	-0.044709	-0.001068	
-0.052949	-0.045625	-0.029755	-0.005035	
-0.056306	-0.009613	-0.007477	-0.012054	
-0.042268	0.017242	0.001068	-0.010223	
-0.033723	0.020599	0.016632	-0.004120	
-0.043489	0.025177	0.002289	-0.009308	
-0.059663	0.010529	0.002899	-0.013580	
-0.072480	-0.001984	0.004425	-0.020294	
-0.047761	0.031892	0.001984	-0.012360	
-0.032502	0.047456	-0.006256	-0.012054	
-0.019379	0.063325	-0.007477	-0.013580	
0.002899	0.040437	0.001068	-0.007172	
0.006256	0.028534	0.014801	0.006256	
0.018158	0.005951	0.015411	0.002289	
-0.003815	-0.016937	0.003204	0.000458	
-0.038301	-0.013885	-0.001373	-0.000763	
0.001068	0.026398	0.002594	-0.001678	
0.065766	0.051423	0.001984	0.000763	
0.122530	0.064851	-0.003510	-0.001678	
0.141451	0.050813	-0.003510	-0.004120	
0.114901	0.011749	0.012665	-0.016327	
0.082856	0.009308	0.028534	-0.017853	
0.046540	0.007172	0.019989	-0.023651	
0.006256	0.006866	0.012054	-0.025787	
-0.038301	0.002289	0.001068	-0.013885	
-0.045320	0.001068	0.004425	0.008698	
-0.058137	-0.017548	0.008698	0.008698	
-0.066987	-0.021515	0.023041	0.006256	
-0.063325	-0.004120	0.009918	-0.018158	
-0.041352	0.023956	0.021210	-0.016327	
-0.008087	0.031281	0.037385	0.002289	
-0.006866	0.016937	0.045014	0.023041	
0.013275	0.008392	0.041352	-0.019989	
0.037080	0.019073	0.022736	-0.063935	
0.020599	0.055390	0.008392	-0.077363	
-0.005951	0.071259	-0.007172	-0.056916	
-0.018158	0.056306	0.014496	0.034638	
-0.039826	0.024567	0.004730	0.099947	
-0.055696	0.022736	0.001068	0.044404	
-0.052949	0.046845	-0.006256	-0.002899	
-0.045014	0.028839	0.003815	0.009308	
-0.035249	-0.022430	0.013275	-0.036164	
0.028229	-0.060578	0.006866	-0.083467	
0.067292	-0.099337	-0.005646	-0.086213	
0.107882	-0.074616	0.003204	-0.074311	
0.115511	-0.036164	0.009918	0.018463	
0.068208	-0.005646	0.022430	0.145723	
-0.022125	0.004730	0.017853	0.149691	
-0.068513	-0.005951	0.006866	0.086823	
-0.065156	-0.008087	-0.001373	0.013275	
-0.057221	0.039826	-0.003204	0.006561	
-0.035554	0.065461	-0.003815	-0.017853	
-0.012970	0.059968	0.001984	-0.042268	
0.008392	0.018158	0.001984	-0.077363	
0.015717	0.023041	0.003204	-0.088655	
0.008698	0.008087	0.006256	0.011444	
-0.004120	-0.028534	0.014801	0.047151	
-0.025177	-0.057527	0.026093	0.004120	
-0.063325	-0.090486	0.004730	-0.037995	
-0.046235	-0.059663	0.010529	-0.032197	
0.005646	-0.028534	-0.006866	-0.025482	
0.042573	-0.029449	-0.012970	-0.013885	
-0.012360	0.004730	-0.013275	-0.000763	
-0.036164	0.077058	0.010223	0.008698	
-0.043489	0.083161	0.017242	-0.075532	
-0.079804	0.083467	0.012054	-0.077668	
-0.069734	0.067597	-0.003204	-0.102999	
-0.059968	0.027313	-0.018158	-0.211032	
-0.045930	-0.005646	-0.000763	-0.205539	
-0.023346	-0.017548	0.003815	-0.050508	
0.077058	0.020905	0.001068	0.076142	
0.160373	0.090180	-0.003204	0.085298	
0.168612	0.063325	0.010223	0.055390	
0.056611	-0.012054	0.011749	0.111238	
0.030060	-0.041047	0.022736	0.213473	
0.072480	-0.060273	0.017853	0.229649	
0.088349	-0.065766	0.016937	0.072480	
0.031281	-0.055390	0.026703	-0.052339	
-0.026093	-0.066682	0.028229	-0.062715	
-0.070039	-0.084382	0.006256	-0.012054	
-0.065156	-0.066682	0.021210	0.051728	
-0.068513	-0.066682	0.047456	0.050202	
-0.063935	-0.050508	0.064546	0.052644	
-0.072175	-0.027924	0.024872	0.044404	
-0.078584	0.002899	-0.003204	-0.011444	
-0.079499	0.016632	-0.010223	-0.082551	
-0.035249	0.014496	-0.009918	-0.170444	
-0.016937	0.010529	-0.002899	-0.267490	
-0.016022	-0.015717	-0.007782	-0.351416	
-0.005646	-0.004120	0.001984	-0.228733	
-0.003815	0.026703	0.012665	0.098726	
-0.032197	0.057527	0.024872	0.094454	
-0.076142	0.048371	0.025177	0.192416	
-0.084382	0.042268	0.023041	0.321813	
-0.072175	0.036775	0.008698	0.108492	
-0.030365	0.049897	0.014496	0.040742	
0.017242	0.045320	0.021210	0.050813	
0.066072	0.059358	0.031587	0.095675	
0.072785	0.048982	0.016937	0.015106	
0.061799	0.025177	0.002594	0.014496	
0.077363	0.065461	-0.003204	0.019989	
0.089265	0.109102	-0.011139	-0.023346	
0.065156	0.055085	-0.014496	-0.029755	
0.019684	0.011749	-0.017548	-0.033723	
-0.030975	0.010223	-0.013885	-0.032197	
-0.060578	-0.015717	-0.019989	-0.035554	
-0.038301	-0.067597	-0.017548	-0.024261	
-0.034944	-0.085908	-0.023346	-0.065156	
-0.014191	-0.052339	0.003204	-0.066987	
-0.009003	-0.055696	0.018463	-0.093537	
0.006561	-0.065766	0.011749	-0.150911	
0.002594	-0.044404	0.011749	-0.192721	
-0.002899	-0.012970	0.027313	-0.092622	
0.000153	-0.006866	0.014496	0.056916	
0.005951	0.014191	0.005951	-0.027618	
-0.006256	0.016937	-0.001678	-0.060578	
-0.013580	0.017853	-0.011749	-0.070649	
-0.017548	0.020905	-0.011749	-0.127108	
-0.016937	0.013885	0.001068	-0.073396	
-0.016327	0.002289	0.018463	0.062409	
-0.016022	0.003815	0.025177	0.129549	
-0.007172	0.010834	0.028229	0.061189	
-0.008392	0.008698	0.029144	0.118563	
-0.009308	0.007172	0.015411	0.285802	
-0.011139	0.009308	0.001068	0.174716	
-0.012360	0.022125	0.006866	0.101473	
-0.015411	0.026398	0.004120	0.001678	
0.005035	0.047456	0.005035	-0.074311	
-0.010834	0.056916	-0.006256	-0.088655	
0.001678	0.058442	-0.004425	-0.050813	
0.025787	0.006866	-0.015411	-0.044709	
0.037995	-0.009918	-0.003815	-0.103609	
0.028839	-0.028229	0.005951	0.008698	
0.009918	-0.036469	0.014801	0.224766	
-0.008087	-0.037385	0.025482	0.085298	
-0.014191	-0.032197	0.019989	-0.058442	
-0.033418	-0.047151	0.010223	-0.132601	
-0.047151	-0.049287	0.010834	-0.138704	
-0.029449	-0.040132	0.014191	-0.176547	
-0.013885	-0.019073	0.002594	-0.112154	
-0.005646	0.011139	0.000763	0.026398	
-0.015717	0.010834	-0.011139	0.046845	
0.001984	0.014496	0.006256	-0.010529	
0.003815	0.016937	0.002594	-0.002289	
0.008698	0.024567	0.008698	0.116121	
0.003815	0.010529	0.013885	0.121920	
0.002289	0.014801	0.025177	0.032502	
0.001068	0.007782	0.014496	-0.059358	
0.010834	0.019379	-0.000153	-0.139620	
0.002594	0.019379	-0.005951	-0.111544	
0.000153	0.022125	0.001984	-0.072175	
0.002594	0.021820	0.010223	0.080720	
0.007172	0.019989	0.024872	0.148775	
0.004120	0.008087	0.040742	0.007172	
-0.000763	0.005035	0.022736	0.033723	
-0.000763	0.005951	0.000153	0.035554	
-0.006256	0.002594	-0.000763	-0.061799	
-0.007477	0.004730	0.014191	-0.077668	
-0.012360	0.003815	0.012665	-0.023651	
-0.016022	0.005951	0.013885	0.002289	
-0.016022	0.004730	-0.000153	-0.014496	
-0.014801	0.004425	-0.010834	-0.010223	
-0.017548	-0.004120	-0.007477	0.025482	
-0.005035	0.004120	0.004120	0.045625	
-0.009308	-0.006256	0.006256	-0.001373	
0.002594	0.004425	0.033113	-0.009918	
-0.011444	-0.005035	0.031281	-0.007782	
-0.003204	0.003204	0.017242	-0.025787	
0.000763	0.000458	0.016937	-0.019073	
-0.006866	-0.010223	0.017853	-0.005035	
-0.014801	-0.016022	0.012665	-0.025177	
-0.011139	-0.017242	0.013275	-0.038911	
0.008392	-0.010834	0.008698	-0.027313	
0.000458	-0.024261	-0.012360	-0.027618	
0.004730	-0.029755	-0.011749	-0.045014	
-0.001068	-0.030975	0.002594	-0.019379	
0.004120	-0.012970	0.015411	0.009003	
0.002594	-0.013885	0.017242	0.003815	
0.003204	-0.012970	0.016022	-0.002899	
0.001068	-0.009918	-0.001678	-0.023956	
0.012665	0.007172	0.014801	-0.014191	
-0.000153	-0.001984	0.026703	-0.015717	
0.008087	0.009003	0.027924	0.002899	
0.001984	0.006561	0.023041	0.000458	
0.003815	0.002899	0.051118	-0.003510	
-0.003815	-0.002899	0.101778	-0.022736	
-0.018158	-0.007172	0.016327	-0.031587	
-0.019379	-0.002289	-0.313573	-0.026398	
-0.017242	-0.000763	-0.394140	-0.001984	
-0.015411	-0.005035	-0.023041	0.030975	
-0.021210	-0.011444	0.344702	0.013275	
-0.016022	-0.005341	0.336156	-0.004120	
-0.021210	-0.005341	-0.018158	-0.006866	
-0.013885	0.003204	-0.118563	0.011139	
-0.009003	0.004730	0.087434	0.008698	
-0.001373	0.016022	0.020599	0.003815	
-0.009613	0.008698	-0.114901	-0.006256	
-0.006256	0.016022	0.105440	-0.000153	
-0.014801	0.004120	0.174411	-0.007172	
-0.006256	0.013885	0.084687	-0.000763	
-0.008087	0.009308	-0.035249	-0.006256	
-0.002289	0.019073	0.017853	-0.006256	
-0.005035	0.017242	0.053254	-0.011749	
-0.003204	0.018158	-0.095064	-0.014191	
0.001984	0.026398	-0.082551	-0.009003	
0.002594	0.026398	0.028534	-0.004120	
0.001984	0.020905	0.101168	-0.011444	
0.002899	0.020905	0.055085	-0.012054	
-0.001068	0.019379	-0.072785	-0.007172	
-0.000153	0.021820	-0.082856	-0.005035	
0.000153	0.018463	-0.102083	-0.013580	
-0.005035	0.008087	-0.057832	-0.026093	
-0.002899	0.017853	-0.193637	-0.007477	
-0.007477	0.009918	-0.058137	0.009918	
-0.001678	0.010834	0.212558	0.031281	
-0.003510	0.008087	0.378271	0.010834	
0.003815	0.016022	-0.001678	-0.007172	
0.011139	0.012665	-0.134737	-0.009308	
0.005035	0.012970	0.162204	-0.001373	
-0.013275	-0.000763	0.120089	-0.010223	
-0.011749	-0.003204	-0.032502	-0.009308	
0.004730	0.003815	-0.213168	0.005951	
-0.001068	-0.003204	-0.191195	-0.004120	
0.000763	-0.000153	0.113680	0.000763	
-0.006866	-0.001984	0.208896	0.006561	
-0.003204	0.001678	-0.090486	0.009918	
-0.012054	-0.005646	-0.074311	-0.003815	
-0.007477	0.001068	0.084992	-0.007782	
-0.003815	0.009003	-0.019073	-0.014191	
-0.013275	-0.001373	0.004730	-0.021515	
-0.008087	-0.001373	0.009308	-0.022430	
-0.005341	0.004730	0.017853	-0.020294	
-0.011444	-0.002899	0.007782	-0.021515	
-0.008087	0.001984	0.001678	-0.015106	
-0.007782	0.002289	-0.022430	-0.017853	
-0.005646	0.005951	-0.045625	-0.011444	
-0.006256	0.006561	-0.030365	-0.008392	
-0.004425	0.008087	-0.019684	-0.001984	
-0.002899	0.009918	0.008392	0.000153	
-0.006866	0.001678	0.015411	-0.000763	
-0.000763	0.011139	-0.029144	0.001068	
-0.002289	0.012054	-0.022125	-0.010529	
-0.001678	0.016937	-0.088044	-0.011444	
-0.005035	0.014801	-0.047761	-0.010529	
-0.004425	0.016632	0.157626	-0.003204	
-0.010223	0.010529	0.322423	-0.014496	
0.000153	0.016937	0.144808	-0.009308	
-0.005646	0.008698	-0.078889	-0.005951	
-0.002289	0.011749	-0.030365	0.004425	
-0.008087	0.003815	-0.182040	0.000763	
-0.003204	0.010223	-0.318151	-0.005035	
-0.008392	0.009308	-0.185702	-0.015717	
-0.011444	0.006561	0.128328	-0.003510	
-0.012054	0.003204	0.472878	-0.001678	
-0.011139	-0.004120	0.213168	-0.005341	
-0.011749	-0.009308	0.001678	-0.002289	
-0.007782	-0.015717	0.070039	-0.004120	
-0.004120	-0.017242	-0.012970	-0.004425	
-0.003815	-0.012970	-0.047456	-0.005035	
-0.001068	-0.001373	0.042573	-0.001984	
-0.002289	0.000763	0.055390	-0.011444	
0.010529	0.014801	0.045625	-0.005646	
0.002594	0.005951	0.019073	-0.012970	
0.006561	0.012360	0.008698	-0.009003	
0.000153	0.001068	-0.019989	-0.007782	
0.003204	0.002899	-0.048676	-0.001984	
-0.009003	-0.011444	-0.060578	-0.007782	
-0.011749	-0.024261	-0.045930	-0.004120	
-0.017853	-0.031892	-0.041963	-0.004425	
-0.025482	-0.041352	-0.030060	-0.006256	
-0.023651	-0.042573	-0.024261	-0.005341	
-0.021210	-0.045625	-0.027313	-0.009003	
-0.015717	-0.033418	-0.013580	-0.009003	
-0.015411	-0.022430	-0.010223	-0.009613	
-0.011139	-0.013885	-0.007172	-0.005341	
-0.003510	-0.005341	-0.003815	-0.006256	
0.000458	0.005951	0.000153	-0.005646	
0.005646	0.011139	0.000458	-0.007477	
0.012054	0.021820	0.008392	-0.001373	
0.003815	0.021820	0.002899	-0.008087	
0.006561	0.023956	0.008087	-0.005341	
0.003204	0.021820	0.005341	-0.005951	
0.003815	0.020905	0.010529	-0.004425	
-0.006256	0.008087	0.009003	-0.010529	
-0.001373	0.018768	0.017853	-0.002899	
-0.007172	0.020599	0.016937	-0.005035	
-0.007477	0.018158	0.011139	-0.009613	
-0.005035	0.019379	0.014496	-0.009308	
-0.005341	0.016327	0.016937	-0.005951	
-0.006866	0.006866	0.018768	-0.009308	
-0.016327	-0.005035	0.012665	-0.013275	
-0.013275	0.001984	0.022736	-0.006256	
-0.013885	-0.003204	0.016327	-0.008087	
-0.006866	0.003204	0.018768	-0.000763	
-0.005646	0.008698	0.013885	-0.008392	
-0.002289	0.008698	0.016632	-0.007172	
-0.007172	-0.004120	0.015411	-0.005951	
-0.003815	0.000153	0.019073	-0.003204	
-0.012970	-0.005341	0.012054	-0.013580	
-0.010223	0.005646	0.016937	-0.010223	
-0.005951	0.008698	0.017853	-0.011749	
-0.000153	0.014801	0.017853	-0.006866	
-0.003815	0.006256	0.011139	-0.011444	
0.002899	0.005646	0.016022	-0.009308	
-0.000153	-0.002289	0.011139	-0.007782	
0.001678	-0.000153	0.012970	-0.000763	
-0.003815	0.003815	0.013275	-0.002899	
-0.003815	-0.000763	0.009003	-0.007782	
-0.003204	0.000153	0.007782	-0.007477	
-0.001678	0.007172	0.010529	-0.005646	
0.001678	0.012360	0.016327	-0.001678	
-0.001984	0.006256	0.009918	-0.009308	
-0.005341	0.009308	0.009003	-0.005035	
-0.005646	0.007782	0.006256	-0.009308	
-0.001068	0.013275	0.009308	-0.007172	
-0.006866	0.007172	0.007172	-0.012054	
-0.000763	0.014801	0.012970	0.000763	
-0.008087	0.006561	0.004120	-0.012970	
-0.001678	0.016022	0.010529	-0.003510	
-0.006866	0.008087	0.008392	-0.008392	
-0.005951	0.007782	0.011139	-0.001373	
-0.003510	0.005951	0.012665	-0.004120	
0.001678	0.011749	0.012665	-0.009918	
-0.005341	0.009308	0.012054	-0.010529	
-0.005341	0.011749	0.009003	-0.009308	
0.004120	0.010223	0.011749	-0.004425	
-0.002289	0.003815	0.009308	-0.010223	
-0.000763	0.010529	0.012970	-0.004120	
-0.007477	0.002899	0.004730	-0.011444	
0.002594	0.012054	0.013275	-0.004120	
-0.006256	0.002899	0.006256	-0.012970	
0.000153	0.005951	0.010529	-0.001373	
-0.005951	-0.005646	0.005341	-0.012970	
-0.005646	0.000458	0.009308	-0.007172	
-0.003815	0.003815	0.005341	-0.006256	
0.001984	0.003815	0.008698	-0.001678	
-0.003815	-0.002899	0.008392	-0.005646	
0.000458	0.003815	0.010834	-0.003510	
-0.001678	0.000763	0.009918	-0.004425	
-0.000153	-0.002899	0.005951	-0.003204	
-0.000153	-0.002289	0.009003	0.001678	
-0.004120	-0.003204	0.003204	-0.001984	
0.003815	0.007782	0.009003	0.003815	
-0.003204	-0.001678	0.001678	-0.005646	
0.001068	0.003815	0.006866	-0.004425	
-0.001373	-0.004120	0.002899	-0.009308	
0.005951	0.000763	0.010834	-0.002899	
0.001984	0.003204	-0.000153	-0.004425	
0.005646	0.006256	-0.003815	-0.003510	
-0.003204	0.007172	-0.001373	-0.003204	
-0.003510	0.006866	0.004425	0.001068	
-0.012970	0.003204	0.018158	-0.004120	
-0.014801	-0.000763	0.042268	-0.001678	
-0.014801	-0.009918	-0.012970	-0.009613	
-0.016022	-0.014191	-0.013885	-0.010529	
-0.016937	-0.023041	0.001068	-0.013275	
-0.010223	-0.022430	-0.003204	-0.012970	
-0.008087	-0.022125	0.038911	-0.013885	
-0.002289	-0.014191	0.027313	-0.009308	
0.001068	-0.005951	-0.004425	-0.010529	
0.002289	-0.002899	0.002899	-0.015106	
0.008087	0.006866	0.003204	-0.006866	
0.005035	0.010834	0.004425	-0.009308	
0.003204	0.016327	0.003204	-0.007477	
-0.001373	0.021210	0.004120	-0.005035	
-0.003815	0.026398	-0.001373	-0.003510	
-0.013580	0.016022	-0.009613	-0.009918	
-0.016327	0.009308	-0.001678	-0.001373	
-0.029449	-0.006256	-0.003510	-0.007782	
-0.030365	-0.007782	0.007172	-0.007782	
-0.028229	-0.015106	0.024872	-0.007172	
-0.028229	-0.024261	0.070039	-0.008392	
-0.026093	-0.027924	0.050508	-0.009613	
-0.022430	-0.019989	-0.022125	-0.006256	
-0.016937	-0.011749	-0.056916	-0.000763	
-0.012054	-0.005646	-0.040132	-0.000153	
-0.012054	-0.001678	0.060578	-0.002289	
-0.015717	-0.002289	0.071870	-0.010223	
-0.008087	0.010834	-0.135653	-0.003815	
-0.011139	0.002899	-0.024261	-0.003204	
-0.005035	0.007782	0.073396	0.002899	
-0.012360	0.004730	0.025177	-0.002899	
-0.011444	0.002289	0.026398	-0.000153	
-0.013885	-0.007782	0.002594	-0.002899	
-0.007782	-0.001373	0.008392	-0.002899	
-0.006256	-0.005646	0.013885	-0.009308	
0.000153	0.000763	0.059358	-0.010529	
-0.004425	-0.002899	0.024261	-0.010529	
0.005035	0.005035	0.015411	-0.008392	
0.004120	0.006561	0.009003	-0.012970	
0.005646	0.009308	0.005035	-0.013275	
0.009918	0.013885	0.002594	-0.012054	
0.010529	0.017853	-0.000153	-0.007477	
0.013275	0.025787	0.001068	0.000153	
0.010223	0.022430	-0.006866	-0.007782	
0.014801	0.021210	-0.003510	-0.004120	
0.006256	0.016632	-0.004425	-0.008392	
0.006866	0.026398	0.004120	-0.001678	
0.000763	0.023956	0.008698	-0.008392	
0.003204	0.027313	0.016937	-0.009308	
-0.005951	0.016022	0.018463	-0.017853	
-0.003510	0.019379	0.006561	-0.009918	
-0.005951	0.010529	-0.032197	-0.009918	
-0.009308	0.004425	-0.046845	-0.012054	
-0.008087	0.003204	-0.009308	-0.016022	
-0.005646	0.005035	0.024261	-0.011444	
-0.004425	0.000763	0.027924	-0.006866	
-0.007477	0.000458	0.056916	-0.012054	
-0.001984	0.008698	0.018158	-0.007172	
-0.008392	-0.000153	-0.031281	-0.011444	
-0.005951	-0.003815	0.003204	-0.001984	
-0.009308	-0.009613	0.006256	-0.002289	
-0.002899	-0.009308	0.059663	0.001984	
-0.003510	-0.016022	0.013275	-0.006866	
0.002289	-0.014801	-0.005646	-0.002899	
-0.000153	-0.019379	-0.014191	-0.008392	
0.003204	-0.012970	0.010529	-0.004425	
0.002899	-0.015717	0.014496	-0.009918	
0.003204	-0.007782	0.022430	-0.007782	
-0.004120	-0.011139	0.030060	-0.010529	
-0.002289	-0.003815	0.034944	-0.007782	
-0.003815	-0.003510	0.028839	-0.008087	
-0.007782	-0.003815	0.009003	-0.009003	
-0.008392	-0.000153	-0.023041	-0.007477	
-0.005035	0.000153	-0.017853	-0.005646	
0.002899	0.007172	-0.004425	-0.004425	
-0.000153	0.005951	-0.009918	-0.013885	
0.000458	0.010223	-0.005341	-0.015106	
-0.003510	0.003815	-0.014191	-0.013885	
-0.005646	0.005951	-0.011749	-0.008392	
-0.015717	-0.001068	-0.011749	-0.012360	
-0.008087	0.007172	0.016327	-0.001373	
-0.016327	-0.001984	0.057221	-0.008087	
-0.007477	0.005951	0.061494	0.002289	
-0.019073	-0.004120	0.001068	0.000763	
-0.021820	-0.001373	-0.025177	0.003815	
-0.021820	-0.003815	-0.044709	0.002899	
-0.016022	0.000458	0.004120	0.000763	
-0.025482	-0.005951	0.009918	-0.004425	
-0.020294	-0.006256	-0.013580	0.000153	
-0.016022	-0.002289	0.010529	-0.000763	
-0.016022	-0.001068	0.057527	-0.005035	
-0.011444	-0.000763	0.047761	-0.001678	
-0.011139	0.000763	0.013275	-0.006256	
-0.007477	0.008392	0.036164	-0.005951	
-0.008087	0.009308	0.038606	-0.004120	
0.005951	0.015717	0.036469	-0.002899	
-0.003204	0.016632	0.005035	-0.012054	
0.001678	0.020599	-0.009308	-0.005646	
-0.003204	0.014801	-0.025787	-0.011444	
0.000458	0.022736	-0.021820	0.000763	
-0.002289	0.018463	-0.023346	0.000763	
-0.001068	0.020294	-0.011139	-0.001373	
-0.001984	0.011749	-0.010223	-0.008392	
0.001984	0.013885	0.004425	-0.005035	
-0.005341	0.002289	0.013275	-0.005035	
0.000153	0.005646	0.028839	0.006256	
-0.001373	0.007782	0.014496	-0.000763	
-0.001068	0.004425	-0.021820	-0.011749	
0.001678	0.002899	0.001068	-0.010529	
-0.001068	-0.003815	0.044404	-0.013580	
0.004120	-0.001984	0.037080	-0.014496	
-0.002289	-0.009613	0.036775	-0.020599	
-0.003815	-0.008087	0.075227	-0.011444	
-0.009003	-0.011749	0.056916	-0.013580	
-0.009613	-0.010834	0.026398	-0.009003	
-0.011749	-0.015717	0.079194	-0.009308	
-0.001984	-0.006866	0.083772	-0.007172	
-0.008392	-0.002289	-0.149385	-0.014496	
-0.001068	0.002594	-0.151827	-0.009918	
-0.003510	0.000153	0.002594	-0.010223	
0.001068	0.002594	0.021210	-0.005341	
-0.000153	0.001984	0.006256	-0.006866	
-0.002899	0.003204	-0.049287	-0.010223	
-0.003204	0.008698	-0.060273	-0.008392	
-0.005646	0.005035	-0.081635	-0.007477	
-0.001373	0.013885	-0.049592	-0.004425	
-0.005035	0.012970	0.094759	-0.009308	
-0.004120	0.012360	0.130465	-0.009918	
-0.007477	0.010223	0.090180	-0.015717	
-0.005646	0.010529	0.099947	-0.012054	
-0.009308	0.006561	0.094149	-0.015717	
-0.006866	0.013885	-0.042573	-0.009918	
-0.007477	0.011749	-0.134737	-0.015106	
-0.002289	0.015106	-0.085908	-0.009003	
-0.009308	0.009003	-0.014191	-0.008392	
-0.006256	0.012360	-0.016022	0.009918	
-0.009613	0.010223	-0.113985	-0.003204	
-0.005646	0.016022	-0.043794	-0.005646	
-0.003510	0.019073	0.119478	-0.001373	
-0.001984	0.019379	0.319676	-0.004120	
-0.001068	0.020294	0.085603	-0.014191	
-0.003815	0.017853	0.052339	-0.014496	
-0.006866	0.016937	0.066682	-0.005035	
-0.009613	0.008698	-0.036164	-0.005646	
-0.001068	0.013885	-0.046845	-0.005035	
-0.003204	0.016327	-0.072785	-0.013275	
-0.001984	0.014191	-0.007172	-0.012054	
-0.007477	-0.000153	0.017242	-0.009003	
-0.009613	-0.002289	0.027008	0.005341	
-0.011444	-0.009308	-0.043183	0.004120	
-0.007477	-0.005646	-0.029449	-0.002289	
-0.006256	-0.003204	0.009003	-0.008392	
-0.007172	0.000153	0.017853	-0.005341	
-0.011139	-0.004120	0.001678	-0.010223	
-0.012360	-0.008087	-0.042573	-0.014191	
-0.014801	-0.015411	-0.070344	-0.015106	
-0.017548	-0.011749	-0.050508	-0.012054	
-0.016327	-0.009003	-0.001678	-0.011444	
-0.009613	-0.006866	0.033418	-0.004120	
-0.005646	-0.007172	0.039216	0.002594	
-0.005951	-0.007172	0.042268	-0.004425	
-0.003815	-0.001678	0.000458	-0.004425	
-0.005951	-0.003815	-0.015717	-0.008392	
0.007782	0.006256	-0.009308	-0.001984	
0.000458	-0.001984	0.041352	-0.009613	
-0.003204	-0.001068	0.052949	0.000153	
-0.005035	-0.008392	0.030670	-0.005035	
0.001068	-0.005646	0.045625	-0.011749	
-0.005035	-0.006256	-0.000763	-0.011749	
-0.003204	0.000153	0.008392	-0.002899	
0.001678	0.000153	0.012360	-0.005035	
0.002594	0.005646	0.029449	-0.006256	
0.001068	0.011139	-0.011139	-0.004425	
-0.001068	0.017242	-0.073701	-0.002289	
-0.000763	0.017242	0.022736	-0.002289	
-0.007782	0.002289	0.070954	-0.009308	
0.000153	0.004425	0.041352	-0.001984	
-0.005951	0.001984	0.001068	-0.001984	
-0.001984	0.006256	-0.034028	-0.000153	
-0.007477	-0.001373	-0.066072	-0.009613	
0.005951	0.009308	0.027924	-0.001678	
0.004730	0.005035	0.034333	-0.006866	
0.003815	0.005646	0.032807	-0.003815	
-0.003510	-0.002289	0.011139	-0.011749	
0.000763	0.000153	-0.029144	-0.011444	
-0.001373	-0.000153	-0.017548	-0.007782	
-0.003815	-0.001373	0.010529	-0.008392	
-0.004120	-0.004120	0.002594	-0.013275	
-0.001373	0.001068	0.010529	-0.005341	
-0.011749	-0.005646	0.007782	-0.011749	
-0.009308	-0.004120	0.006561	-0.009003	
-0.003815	-0.001068	-0.002289	-0.008392	
-0.005341	0.001678	-0.013580	-0.012970	
-0.001068	0.007172	-0.020294	-0.005341	
-0.004425	0.000153	-0.003815	-0.009308	
-0.004425	0.004120	0.071870	-0.001068	
-0.005646	0.005035	0.059358	-0.001373	
-0.006256	0.008392	0.026093	-0.000153	
-0.005646	0.002899	0.006256	-0.003510	
-0.004120	0.002594	0.002899	-0.005646	
-0.009003	-0.001373	0.007172	-0.006256	
-0.001373	0.009003	0.006256	0.000763	
-0.011749	0.000763	-0.003204	-0.005646	
-0.012360	0.006561	0.012970	-0.000763	
-0.010834	0.010834	0.012970	-0.009308	
-0.003510	0.014191	0.013275	-0.004425	
-0.006256	0.002899	-0.018158	-0.005035	
-0.007477	-0.004425	-0.031587	-0.005035	
-0.002289	-0.002289	0.002289	-0.006256	
-0.006256	-0.001373	0.031587	-0.012054	
-0.005341	0.002899	0.001678	-0.012054	
-0.007782	-0.000763	0.018768	-0.011444	
-0.005035	-0.003204	0.063630	-0.005951	
-0.009613	-0.003815	0.033113	-0.011139	
-0.005646	0.002594	0.016327	-0.004120	
-0.013275	-0.003510	0.006866	-0.015717	
-0.004425	0.007782	0.024261	-0.005341	
-0.004120	0.003204	0.010529	-0.007477	
-0.005951	0.002899	0.005951	-0.007172	
-0.003510	0.000458	0.004425	-0.006256	
-0.004425	0.004425	0.004120	-0.003510	
0.000458	0.010529	0.003204	-0.003510	
0.000153	0.007782	0.004120	-0.005951	
-0.005341	0.000458	0.006866	-0.006256	
-0.004425	0.000763	0.001984	-0.006866	
-0.001678	0.006256	0.011139	-0.003510	
-0.005341	0.002899	0.008392	-0.010223	
-0.007477	0.005951	0.005341	-0.012054	
-0.009918	-0.000153	0.004425	-0.011444	
-0.005035	0.004425	0.010529	-0.005035	
-0.002899	0.004425	0.007782	-0.009308	
0.002594	0.008392	0.012665	-0.006256	
-0.003510	0.000458	0.004425	-0.015106	
0.005951	0.004730	0.011749	-0.002899	
-0.001068	0.000763	0.009918	-0.004120	
-0.003815	-0.000153	-0.003204	-0.003815	
-0.006256	-0.005646	-0.012970	-0.005951	
-0.008392	-0.005341	-0.008392	-0.001678	
-0.005646	-0.002899	-0.011444	-0.000153	
-0.005035	-0.000153	0.004425	-0.003204	
