NO_OF_SAMPLES	4800
TOT_NO_OF_CHAN	4
FREQUENCY	960.000000
NO_OF_CALC_CHAN	0
TIME_STAMP	2020-02-08, 11:27:47	226745.10205250
FIRST_SAMPLE	1
DESCRIPTION	--
DATA_INCLUDED	Analog
CHANNEL_NAMES	Vastus Lateralis	Vastus Medialis	Tibialis Anterior	Lateral Gastroc
CHANNEL_GAIN	1	1	1	1
FP_LOCATION
FP_CAL
FP_GAIN
Vastus Lateralis	Vastus Medialis	Tibialis Anterior	Lateral Gastroc	
-0.010834	-0.003510	0.012054	-0.002899	
-0.008392	0.000153	-0.175021	-0.005035	
-0.012970	-0.003815	-0.070649	-0.014496	
-0.012360	0.002899	0.422217	-0.002289	
-0.027924	0.001678	0.096895	-0.005341	
-0.025482	0.005951	0.109407	0.004425	
-0.018463	0.004730	0.208896	-0.005646	
-0.010223	0.010223	0.023041	-0.009613	
-0.002899	0.006561	-0.013580	-0.000763	
0.005646	0.009003	-0.001984	-0.001678	
0.003815	0.005951	-0.077058	-0.005341	
0.006866	0.007172	-0.074616	-0.001068	
0.002289	0.005951	-0.063935	-0.001984	
-0.001678	-0.002289	-0.036775	-0.004120	
0.002899	-0.001984	0.062715	0.006256	
-0.005035	-0.009613	0.116121	-0.002899	
-0.005035	-0.002899	0.024872	-0.000153	
-0.009003	0.002594	-0.047761	-0.008392	
-0.007477	0.000153	0.043183	-0.001678	
-0.014191	-0.003815	0.101168	0.000153	
-0.007782	-0.002899	0.033113	0.004120	
-0.015717	-0.012970	0.004120	-0.001678	
-0.010834	-0.002899	0.032197	0.000153	
-0.007782	-0.000763	0.056916	-0.008087	
-0.001068	0.004120	-0.006866	-0.005035	
0.002289	0.008087	-0.076447	-0.004120	
0.000763	0.005035	-0.162509	-0.005951	
0.006866	0.006561	-0.140535	0.000763	
0.056306	0.005951	-0.023651	-0.001678	
0.104830	0.008698	-0.132601	-0.005035	
0.071870	0.008698	-0.005341	-0.006256	
0.023651	0.005035	0.017853	-0.004120	
-0.029144	0.000458	-0.008087	-0.005035	
-0.064240	-0.000763	0.214999	-0.000763	
-0.077973	-0.008087	0.261997	-0.006256	
-0.078584	0.011749	-0.001068	-0.002289	
-0.081330	0.004425	0.019379	-0.011749	
-0.035554	0.004425	0.009003	0.001068	
0.000153	-0.000763	-0.011139	-0.003204	
0.006561	-0.004120	-0.049897	-0.002899	
0.014496	-0.011749	-0.063020	-0.007782	
0.016632	-0.007172	0.026093	-0.011444	
0.001984	-0.004120	0.013275	-0.019379	
-0.009308	0.001678	-0.108187	-0.031587	
-0.035249	0.004120	-0.193637	-0.021515	
-0.037690	0.017242	-0.205539	-0.013275	
0.054170	0.018463	-0.146639	-0.011139	
0.108492	0.016327	-0.026398	-0.007477	
0.037995	0.036469	0.350500	-0.005341	
-0.078584	0.024567	0.188754	-0.011444	
-0.142366	0.017853	-0.034028	-0.003815	
-0.097200	0.015106	-0.017548	-0.005951	
-0.045930	0.023041	0.213168	0.000763	
-0.023346	0.006256	0.252842	-0.009003	
-0.007782	0.001068	-0.112459	-0.012970	
0.003815	0.004425	0.241245	-0.003510	
0.019684	0.004425	0.356298	0.012360	
0.031281	-0.005951	0.095980	0.009308	
0.030365	-0.009308	-0.179904	-0.013275	
0.015717	-0.001068	-0.152742	-0.021820	
0.000763	0.009003	0.204623	-0.007172	
-0.013580	0.014801	0.090180	-0.007172	
-0.018158	0.021820	-0.029144	0.000458	
-0.026398	0.010834	-0.080415	-0.003510	
-0.012970	0.016937	-0.097200	-0.014191	
0.005951	0.016632	-0.225681	-0.011749	
0.017242	-0.005341	-0.173495	-0.005035	
0.029755	-0.007172	-0.049897	0.014191	
0.057221	-0.007782	0.010529	0.005035	
0.111544	0.000763	-0.034028	-0.009003	
0.074311	0.003204	-0.023041	-0.037385	
0.007782	0.013275	-0.011749	-0.057221	
-0.057527	-0.002289	-0.009613	-0.050508	
-0.067292	-0.023956	-0.009308	-0.009613	
-0.055085	-0.043794	-0.006866	0.006866	
-0.041963	-0.050508	-0.004120	-0.003510	
-0.031281	-0.054170	-0.004425	0.019379	
-0.022430	-0.045625	-0.015411	0.025177	
0.004425	-0.042268	-0.016327	0.019989	
0.036775	-0.042573	-0.048371	0.018768	
0.053254	-0.016937	0.030670	0.026093	
0.022736	0.017853	0.122530	0.036775	
-0.085908	0.054780	-0.003204	0.012970	
-0.132601	0.042573	0.002899	-0.004120	
-0.055390	0.038911	0.049592	-0.023346	
-0.006256	0.023346	0.041657	-0.037385	
0.034944	0.014496	0.018463	-0.042878	
0.030060	0.010529	-0.001068	-0.050813	
0.012665	0.042573	0.007782	-0.017242	
-0.041352	0.058442	0.014191	0.014496	
-0.057221	0.049897	0.019989	0.044709	
-0.052949	0.023041	0.001984	0.038301	
-0.025482	-0.008392	-0.001678	0.018463	
0.072480	-0.065461	0.005035	-0.021820	
0.209811	-0.091401	0.011139	-0.030365	
0.166781	-0.076753	0.009308	-0.051728	
0.009003	-0.037385	0.008087	-0.039826	
-0.104525	-0.023956	0.017853	0.010834	
-0.094149	-0.023956	0.010529	0.039521	
-0.037385	0.013885	0.024567	0.009003	
0.011139	0.052949	0.036164	0.008392	
0.055085	0.072175	0.052949	0.023041	
0.081025	0.060578	0.050202	0.049287	
0.089265	0.050202	0.044709	0.024261	
0.047151	0.028229	0.024872	-0.001678	
0.002289	0.057527	0.044709	0.002899	
-0.031281	0.061189	0.054475	-0.004425	
-0.029449	0.051118	-0.025177	0.006561	
-0.005341	0.022125	-0.203403	0.002594	
0.074006	-0.007782	-0.284886	0.012360	
0.047151	-0.034333	-0.233616	-0.024261	
-0.027008	-0.031281	0.111544	-0.019379	
-0.077363	-0.032197	0.388647	0.005951	
-0.091096	-0.021210	0.241856	0.014191	
-0.079194	-0.019379	0.121004	0.006561	
-0.075227	-0.012360	0.138094	-0.036469	
-0.102388	0.039216	0.021210	-0.180209	
-0.130465	0.076753	-0.039216	-0.313573	
-0.067292	0.057221	0.008392	-0.234226	
-0.028229	0.017853	0.038606	-0.009613	
0.007782	0.018768	0.012054	-0.030365	
0.013885	-0.019379	0.006256	-0.056611	
0.030670	-0.084077	-0.000763	-0.052644	
0.030975	-0.101778	-0.024261	0.024872	
0.049897	-0.069123	-0.013885	0.149691	
0.159152	-0.047151	-0.001678	-0.036164	
0.203708	-0.038606	-0.001373	-0.033418	
0.140841	-0.077668	-0.010223	0.108797	
0.100252	-0.077363	-0.016022	0.091401	
-0.034028	-0.054170	-0.016937	0.045320	
-0.144197	-0.018158	-0.031892	0.031587	
-0.188144	0.026398	-0.035554	-0.069123	
-0.143282	0.049287	-0.029449	-0.077363	
-0.026093	0.121614	-0.023956	-0.029755	
-0.000153	0.152742	-0.021820	-0.067903	
-0.006866	0.098421	-0.008392	-0.069428	
0.026093	0.059358	-0.013580	-0.017853	
0.011139	0.018768	-0.008087	-0.048066	
-0.060578	-0.037080	-0.005951	-0.056001	
-0.175937	-0.008087	-0.025177	-0.005341	
-0.200351	0.085298	-0.050508	0.033723	
-0.037690	0.197299	-0.030365	0.102694	
0.141146	0.226902	-0.021210	0.147249	
0.113070	0.191806	-0.027008	0.102694	
-0.005951	0.137178	-0.028229	0.104525	
-0.183871	0.034638	-0.017853	0.202792	
-0.197299	-0.093537	-0.014191	0.078584	
-0.101168	-0.212253	-0.001068	0.004120	
-0.009613	-0.238499	0.031281	0.019989	
0.015106	-0.238499	0.046540	0.116121	
0.064240	-0.209506	0.052949	0.059358	
0.153048	-0.164950	0.040132	-0.058137	
0.190280	-0.079194	0.037690	-0.023651	
0.136263	-0.083467	0.036469	0.007172	
0.106356	-0.080720	0.050813	0.159152	
0.180820	0.000458	0.041352	0.161899	
0.227818	0.068818	0.042573	-0.030060	
0.279392	0.123140	0.037080	-0.125277	
0.242466	0.124666	0.038606	0.022430	
0.071259	0.066682	0.035554	-0.013580	
-0.027008	0.048371	0.027008	-0.166476	
-0.028839	0.002594	0.008698	-0.258335	
-0.102388	0.019379	0.005951	-0.402075	
-0.385290	0.167392	0.010223	-0.324559	
-0.486610	0.314183	0.016937	-0.195163	
-0.218356	0.322118	0.009003	-0.222935	
0.016327	0.135042	-0.011444	0.064851	
-0.184176	-0.108797	-0.023956	0.283971	
-0.359961	-0.334020	-0.044099	0.452125	
-0.221409	-0.375525	-0.076447	0.513466	
0.063935	-0.246128	-0.103304	0.135042	
0.326695	-0.118868	-0.092927	-0.289159	
0.371252	-0.051118	-0.014496	-0.175021	
0.108492	0.087739	0.090180	0.066987	
-0.055696	0.294347	0.108187	0.085298	
-0.097200	0.293431	0.091706	0.070954	
0.033723	0.132601	0.099337	-0.190585	
-0.074006	-0.140230	0.093843	-0.105135	
-0.198825	-0.299230	0.074616	0.440528	
-0.065766	-0.182956	0.048371	0.616007	
0.089875	0.005646	0.033113	0.012970	
0.016937	0.079194	0.027924	-0.241245	
-0.234837	-0.101473	0.038911	0.374609	
-0.183566	-0.228428	0.034333	0.609293	
-0.057832	-0.064240	0.032807	0.100252	
-0.065156	0.149691	0.022125	-0.026093	
-0.062104	0.249790	0.004730	-0.071565	
-0.052949	0.189975	-0.000153	-0.132601	
-0.002899	0.121309	-0.005035	-0.162204	
0.056306	0.023346	-0.017548	-0.129549	
0.120699	-0.015717	-0.025787	-0.039521	
0.152437	0.018158	-0.010223	-0.182651	
0.148165	-0.006866	-0.005951	-0.223240	
0.110323	-0.002899	-0.010223	-0.247349	
0.200351	0.006866	-0.029755	-0.228123	
0.617533	-0.052644	-0.029449	-0.231785	
0.806745	-0.085908	-0.029144	-0.429847	
0.153658	-0.011444	-0.027313	-0.403296	
-0.303197	0.186923	-0.025177	-0.407874	
-0.279697	0.364538	-0.012360	-0.589456	
0.071870	0.209811	-0.012360	-0.801251	
0.237888	-0.044404	0.033113	-0.436866	
-0.089875	-0.190585	0.069123	0.565957	
-0.301061	-0.153963	0.063020	0.786603	
-0.269932	-0.071870	0.027008	0.519264	
-0.374914	-0.040437	0.013885	0.261387	
-0.399023	0.002289	-0.035859	0.044709	
-0.077973	-0.046540	-0.052949	0.237888	
0.091401	0.100863	-0.031281	0.104525	
0.342565	0.307469	-0.003204	-0.278172	
0.634623	0.227818	0.030060	-0.154573	
0.151522	0.106661	0.048371	-0.123140	
-0.462806	-0.005951	0.033113	-0.596476	
-0.612955	-0.248264	0.024872	-0.153963	
-0.403296	-0.363623	0.040132	0.896772	
-0.221409	-0.265049	0.039216	0.809186	
-0.095369	-0.243076	0.011139	0.255283	
-0.069734	-0.156099	-0.030670	-0.039521	
0.012665	-0.147860	-0.039826	-0.098421	
0.112764	-0.186007	-0.041352	0.092927	
0.648966	-0.034333	-0.024261	0.166171	
1.341420	0.157016	-0.045930	0.002289	
0.573586	0.237888	-0.027618	0.116121	
-0.577859	0.373693	-0.005035	0.075532	
-0.917525	0.375830	0.004120	0.174716	
-0.310216	0.330663	0.041352	0.360571	
0.264439	0.255589	0.056611	0.071565	
0.102083	0.157016	0.016937	-0.236973	
0.028839	-0.098421	-0.002899	-0.257420	
-0.173800	-0.369116	0.004120	-0.171359	
-0.649576	-0.417029	0.014496	-0.037690	
-0.691997	-0.354773	0.020294	0.129549	
-0.435950	-0.278477	0.026398	-0.107882	
-0.102388	-0.118868	0.057221	-0.254368	
0.033723	0.040437	0.066377	-0.196689	
0.026093	0.127413	0.039216	-0.209811	
0.140841	0.067597	0.017853	-0.266270	
0.195163	0.004425	0.007782	-0.111238	
0.209506	-0.002289	-0.007172	-0.064546	
0.186313	0.070039	-0.034638	-0.157931	
0.279392	0.071259	-0.038606	-0.133821	
0.422217	0.104525	0.009918	-0.280308	
0.694743	0.175937	0.037690	-0.264133	
0.712443	0.072785	0.041657	-0.121614	
-0.012054	-0.090791	0.022125	0.150606	
-0.439307	-0.119478	0.034333	0.269016	
-0.420081	-0.084687	0.034638	0.017548	
-0.105135	-0.000763	0.028839	-0.046540	
-0.117342	0.189364	0.001068	-0.402380	
-0.286107	0.271152	-0.023346	-0.219578	
-0.097506	0.246128	0.002899	0.036775	
0.317540	0.144503	0.030365	0.291600	
0.549478	-0.073396	0.007782	0.199740	
0.411841	-0.322118	-0.009918	0.096895	
0.019684	-0.331273	0.005341	0.104219	
-0.579385	-0.260471	-0.012970	0.257725	
-0.666667	-0.223545	-0.014496	0.529945	
-0.272068	-0.106356	-0.025787	0.475014	
0.055390	0.064851	-0.015411	0.375830	
-0.033113	0.238499	-0.025787	0.219883	
-0.104219	0.319371	-0.027618	-0.002899	
-0.131685	0.244602	-0.016022	-0.276035	
-0.129244	0.084992	-0.003815	-0.537271	
-0.001984	0.060884	0.019989	-0.574197	
0.098421	0.072175	0.029144	-0.260166	
0.136873	0.054475	0.030670	0.150301	
0.095369	0.050202	0.027313	0.079804	
0.009613	0.021210	0.040132	-0.062104	
0.048371	-0.007782	0.047151	0.176852	
0.245823	0.038301	0.023346	0.142977	
0.166476	-0.027008	-0.003815	0.255283	
-0.133211	-0.088349	-0.001678	-0.064546	
-0.223850	-0.091401	0.035249	-0.415198	
-0.108492	-0.078584	0.063630	-0.370031	
-0.016937	-0.086213	0.022736	-0.221714	
0.074922	-0.075227	-0.004425	0.130465	
0.181735	-0.035554	0.001678	0.240940	
0.195163	0.033113	-0.004120	0.131990	
-0.128633	0.093537	-0.003510	0.026093	
-0.225376	0.116732	0.006256	0.048982	
-0.085908	0.095064	0.022125	0.048982	
0.009918	-0.021515	0.036469	-0.082551	
0.086213	-0.077668	0.019989	0.048982	
0.112764	-0.145113	0.018158	0.183566	
0.095369	-0.183261	0.038911	0.195163	
0.043794	-0.197909	0.009918	0.168002	
0.018158	-0.142061	-0.007477	0.028229	
0.011749	-0.068513	-0.021210	-0.212558	
0.014801	0.026093	-0.018463	-0.593729	
0.013885	0.111849	0.000153	-0.702067	
0.018463	0.165866	0.012665	-0.395666	
-0.003815	0.150911	0.020294	-0.122225	
-0.014801	0.080720	0.036469	-0.269016	
-0.033113	0.040437	0.017853	-0.309300	
-0.027008	0.044099	0.039521	0.441749	
-0.035554	0.025177	0.059358	0.407874	
-0.037080	0.020905	0.027924	0.049592	
-0.041047	0.020294	0.006866	-0.104525	
-0.042268	0.019379	-0.009613	-0.043794	
-0.039521	0.019989	-0.008087	0.184482	
-0.037995	0.011749	-0.004120	0.273594	
-0.035859	0.010834	-0.007477	0.136568	
-0.033418	0.004120	-0.011444	0.155794	
-0.028839	0.003815	-0.001678	0.570535	
-0.030365	-0.002899	-0.000153	0.808270	
-0.025787	-0.009003	0.011749	0.174716	
-0.025482	-0.023956	0.000458	0.109102	
-0.015411	-0.009918	-0.004120	0.038301	
-0.017853	-0.012970	-0.016937	-0.139620	
-0.013885	-0.012360	-0.014496	-0.175326	
-0.017242	-0.013885	-0.009918	-0.206759	
-0.008087	-0.006866	0.000458	-0.227818	
-0.011444	-0.005646	0.002594	-0.238194	
-0.005035	0.002289	0.009918	-0.194858	
-0.007477	-0.003510	0.016327	-0.160983	
-0.009308	-0.001984	0.027924	-0.175021	
-0.003510	-0.003204	0.030975	-0.162814	
-0.006866	-0.004120	-0.005341	-0.160373	
0.000153	-0.000763	-0.013885	-0.181430	
-0.001068	-0.005646	-0.017548	-0.177157	
0.002594	0.004425	-0.006866	-0.173190	
-0.001068	0.005951	-0.021210	-0.249485	
0.008392	0.017853	-0.016022	-0.200961	
-0.002899	0.009003	-0.003204	-0.133516	
0.000458	0.013275	0.044709	-0.027313	
-0.001373	0.008698	0.064546	-0.030060	
0.008392	0.012970	0.049287	0.064851	
0.000153	0.005951	0.032807	-0.075532	
0.008087	0.009003	0.030060	-0.031281	
0.008087	0.006256	0.018158	0.195163	
0.003815	0.005951	0.017242	0.157016	
0.006866	0.005951	0.031587	0.081635	
0.004120	0.002289	0.022736	0.086823	
0.004730	0.004425	0.016632	0.124666	
0.009003	0.005035	0.016937	0.098726	
0.009003	0.002899	0.016327	0.070039	
0.004730	-0.001068	0.012054	0.054780	
0.011749	0.000763	0.014191	0.035859	
0.005646	-0.001068	0.002289	0.043183	
0.008698	0.005646	0.001678	0.077668	
0.001068	0.000153	-0.003815	0.085603	
0.005646	0.005035	0.012970	0.051423	
0.001068	-0.001984	0.000153	-0.037690	
0.002899	0.004425	0.001678	-0.027618	
0.000458	-0.001068	0.012054	-0.020599	
0.001984	0.003815	0.009003	-0.048371	
-0.009613	-0.001068	0.002899	0.000153	
-0.007782	-0.002899	0.003815	0.098421	
-0.004120	0.001678	0.026398	0.094759	
0.001068	0.006561	0.027924	0.031587	
0.004730	0.012054	0.017242	0.020905	
0.003815	0.012970	0.020599	0.020905	
0.008392	0.016022	0.022125	0.017548	
0.003204	0.013275	0.017853	-0.044099	
0.006256	0.016937	0.015411	-0.103914	
0.008698	0.016022	0.010834	-0.075227	
0.005951	0.018158	0.008392	-0.064851	
-0.005951	0.009308	0.004730	-0.072175	
-0.005035	0.014801	0.009003	-0.005341	
-0.017548	0.007782	0.002289	0.056916	
-0.013275	0.011139	0.014191	0.021515	
-0.015411	0.002289	0.004730	-0.064851	
-0.009613	0.010223	0.004120	0.030365	
-0.002289	0.010529	0.008087	0.261082	
-0.001984	0.005951	-0.001373	0.197909	
0.003204	0.007782	-0.011749	0.049897	
-0.004425	0.010834	-0.012970	0.027618	
-0.006866	0.008392	-0.012360	0.005951	
-0.011444	0.002289	-0.013885	-0.000153	
-0.006256	0.008087	-0.003815	-0.012054	
-0.007477	0.003815	-0.002289	-0.011749	
-0.009308	0.001984	0.001068	-0.004120	
-0.010834	-0.001373	-0.001068	-0.023651	
-0.009003	-0.000763	0.004730	-0.019989	
-0.019379	-0.011139	0.001984	-0.020294	
-0.016022	-0.001984	0.005035	-0.016632	
-0.016937	-0.006866	0.000153	-0.020294	
-0.005951	-0.004120	0.006561	-0.016327	
-0.006866	-0.011139	0.001678	-0.015106	
-0.003815	-0.004120	0.002899	-0.003510	
-0.009308	-0.008087	0.004730	-0.005341	
-0.005341	-0.006866	0.009003	0.004425	
-0.007172	-0.005341	0.005951	0.008087	
-0.011139	-0.005035	0.004120	0.014191	
-0.012360	-0.007172	0.004730	0.018158	
-0.016022	-0.005341	0.004425	0.014191	
-0.012970	-0.004425	0.012054	0.020294	
-0.023346	-0.014191	0.001984	0.014801	
-0.017242	-0.006256	0.006866	0.014496	
-0.014191	-0.006866	0.006561	0.011139	
-0.011139	-0.001984	0.009918	0.011444	
-0.014801	-0.001373	0.010834	0.005341	
-0.007477	0.003204	0.012054	0.005035	
-0.017548	-0.004120	0.004120	-0.004425	
-0.008392	0.004425	0.010223	0.005951	
-0.017853	-0.002899	0.005035	-0.010223	
-0.017853	0.001678	0.005951	-0.008392	
-0.024872	-0.002289	-0.001068	-0.005646	
-0.026093	-0.000763	0.001678	-0.003510	
-0.031892	-0.005646	0.003204	-0.010529	
-0.032197	-0.007172	0.002899	-0.009308	
-0.037690	-0.005035	0.005341	-0.009613	
-0.035554	-0.005951	0.004730	-0.007782	
-0.020294	-0.000153	0.012970	-0.000763	
-0.013580	0.001068	0.006256	-0.001984	
-0.008087	0.008392	0.003204	-0.001373	
-0.009308	-0.000763	-0.005035	-0.008087	
0.005646	0.009918	0.008392	0.000763	
-0.001068	0.002594	0.007782	-0.008392	
0.008087	0.004425	0.019379	-0.009918	
-0.005341	0.000153	-0.000763	-0.017242	
-0.016937	0.010223	-0.021210	-0.017242	
-0.011139	0.004425	-0.017853	-0.017853	
0.012360	0.012054	-0.044404	-0.010223	
0.020599	0.007172	-0.083772	-0.014191	
0.026093	0.006256	-0.089875	-0.010529	
0.022125	0.005035	-0.102999	-0.009918	
0.020599	0.004120	-0.129549	-0.007477	
0.011749	0.004120	0.063020	-0.006256	
0.005035	0.004425	0.236362	-0.009003	
0.006256	0.005951	0.141756	-0.003204	
-0.006256	0.004120	0.203097	-0.016632	
0.001068	0.007782	0.228428	-0.014496	
-0.000153	0.002289	0.088044	-0.023346	
0.005035	0.010834	0.061494	-0.021820	
0.003204	0.005951	0.007782	-0.030670	
0.010834	0.009918	-0.058747	-0.022125	
0.001678	0.006561	-0.112459	-0.026398	
0.006561	0.011139	-0.137789	-0.012970	
-0.004425	0.005951	-0.125277	-0.005951	
-0.003510	0.010834	-0.182956	0.000458	
-0.009613	0.007782	-0.268406	-0.014191	
-0.011444	0.009918	0.107882	-0.016327	
-0.005341	0.014496	0.137789	-0.013580	
-0.006256	0.012360	-0.081635	-0.020294	
-0.003510	0.007172	-0.044709	-0.028534	
-0.000763	0.005646	-0.020599	-0.027924	
0.000763	0.014801	0.074922	-0.034028	
-0.000763	0.010223	0.070039	-0.035859	
0.004730	0.009003	0.122225	-0.017242	
0.003204	0.008087	0.180820	-0.013580	
0.011749	0.012970	0.178683	-0.001678	
0.001068	0.000458	0.006866	-0.010529	
0.008698	0.005646	-0.175021	-0.007172	
0.004730	0.000153	-0.070649	-0.013580	
0.006866	0.004425	0.244602	-0.010223	
-0.000763	0.000458	-0.048676	-0.017548	
-0.002289	0.001678	0.069123	-0.025177	
-0.011139	-0.007782	0.138399	-0.027618	
-0.003510	-0.001373	-0.031587	-0.012054	
-0.005951	0.001678	-0.021210	-0.007782	
-0.009308	-0.001068	-0.015717	-0.014191	
-0.010223	-0.000153	0.059052	-0.012970	
-0.011444	0.002594	0.043489	-0.017242	
-0.010834	0.003815	-0.120699	-0.019073	
-0.015411	-0.004120	-0.073091	-0.024567	
-0.011749	0.001678	0.135347	-0.019684	
-0.011444	0.002899	0.043489	-0.013580	
-0.005035	0.005035	0.016327	-0.013885	
-0.009613	0.002289	0.026703	-0.019684	
-0.005341	0.004730	-0.008087	-0.016327	
-0.009308	-0.003510	0.019379	-0.016327	
0.000153	0.005035	-0.084687	0.002594	
-0.003815	0.004730	-0.298924	0.002594	
0.002594	0.008698	-0.071565	0.007782	
0.004120	0.004425	-0.077973	0.008392	
-0.003510	0.001678	-0.210116	-0.008087	
0.002289	0.004425	-0.044404	-0.008392	
0.004120	0.001678	0.083772	-0.010529	
0.005646	0.006561	0.091706	-0.000763	
-0.005035	0.002289	0.031587	-0.000153	
-0.002899	0.002899	-0.013885	0.000458	
-0.006866	0.000153	0.023041	0.005341	
-0.004425	0.003204	0.149996	0.006561	
-0.009613	-0.005951	0.062715	0.001984	
-0.003815	-0.001373	0.083467	-0.003815	
-0.005341	-0.001068	0.168002	-0.012054	
0.002594	0.003204	0.087129	-0.008087	
0.002594	0.001984	0.102388	-0.011749	
0.002899	0.006256	0.066987	-0.010529	
0.004730	-0.000153	-0.000763	-0.012970	
0.006561	-0.001373	-0.007477	-0.009003	
0.002899	-0.001373	0.021515	-0.002899	
0.002594	0.001984	0.032807	0.005341	
0.000153	-0.001373	0.026703	0.001068	
-0.003815	-0.004120	0.003204	0.003204	
-0.011444	-0.003204	-0.016937	0.001678	
-0.016022	-0.000153	0.049287	-0.003510	
-0.013885	0.004120	0.123446	0.003815	
-0.022430	-0.007782	0.188754	-0.007172	
-0.009613	0.000153	0.060884	0.000763	
-0.005646	-0.001373	-0.233921	0.005035	
-0.003815	0.002289	-0.494850	0.008698	
-0.005341	0.000458	-0.155184	0.010834	
-0.001678	0.001678	-0.195468	0.011444	
-0.004425	0.000458	-0.280003	0.002594	
-0.001373	0.002899	-0.204013	-0.004425	
0.001068	-0.001373	-0.224461	-0.007782	
0.001068	-0.005035	-0.095369	-0.010223	
0.009613	0.002899	-0.215610	-0.008392	
0.014496	-0.001068	-0.022430	-0.003510	
0.014191	-0.002899	0.720684	-0.003204	
0.013885	-0.005341	0.867781	-0.006256	
0.019684	0.001984	0.306249	0.008698	
0.013275	0.003204	0.077973	0.007172	
0.017853	0.014801	0.036469	-0.001678	
0.011139	0.008087	0.073396	-0.021210	
0.011749	0.007172	0.124971	-0.027924	
0.009918	0.010223	0.099031	-0.019989	
0.006561	0.009003	0.141146	-0.019989	
-0.003204	-0.000763	0.083161	-0.022125	
-0.011139	0.003204	0.150606	-0.008392	
-0.021210	-0.001984	0.113375	-0.012054	
-0.016937	0.004120	0.109713	-0.006256	
-0.021820	0.003204	-0.030365	-0.009003	
-0.019684	0.011749	-0.182956	-0.007477	
-0.017548	0.005646	-0.200961	-0.010223	
-0.011444	0.007782	-0.171054	-0.001984	
-0.013580	0.005646	-0.129549	-0.001984	
-0.009003	0.004425	-0.189364	0.008698	
-0.005951	-0.002899	-0.272984	-0.003510	
-0.008087	-0.005951	-0.300450	-0.010529	
-0.003510	0.004120	-0.106050	-0.009003	
-0.003815	0.001984	0.007172	-0.009003	
-0.008087	0.007172	-0.049592	-0.001984	
-0.015411	0.004120	0.005035	-0.007477	
-0.011749	0.012360	0.164950	0.003204	
-0.017242	0.009003	0.433204	0.000763	
-0.015411	0.006866	0.162814	-0.007477	
-0.025482	0.003204	0.074922	-0.013580	
-0.021210	0.017853	-0.022125	-0.002289	
-0.029449	0.017853	-0.185702	-0.007477	
-0.024872	0.028534	-0.216525	0.002289	
-0.027313	0.022125	-0.211337	-0.000763	
-0.026398	0.019989	-0.064851	0.006561	
-0.028229	0.022125	-0.049287	0.006866	
-0.025177	0.014191	0.071565	0.000763	
-0.021820	0.010223	0.247349	-0.000153	
-0.024872	0.007782	0.087434	-0.009918	
-0.017548	0.001678	0.027313	-0.007477	
-0.015106	0.000763	-0.019989	0.000763	
-0.013275	-0.001068	-0.094759	-0.000763	
-0.010834	-0.007172	-0.145113	0.002594	
-0.007782	-0.005341	-0.118868	0.005951	
-0.011444	-0.013580	-0.027924	0.000763	
-0.003204	-0.010834	0.215915	0.012665	
-0.005035	-0.011444	0.138399	0.010223	
0.001068	-0.004120	-0.031587	0.015106	
0.002289	0.001678	0.084687	0.011139	
0.002289	0.005951	0.048371	0.012665	
-0.005035	0.007172	0.195163	0.010834	
-0.005035	0.010529	0.129244	-0.001678	
-0.002899	0.006256	0.115206	0.002899	
-0.007477	0.005951	0.226597	0.008087	
-0.004425	0.010223	0.146334	0.005341	
-0.008087	0.003815	-0.006256	0.000763	
-0.001678	0.009308	0.040742	0.002899	
-0.007782	0.004730	-0.017242	-0.005951	
-0.001678	0.004425	-0.083772	-0.003510	
-0.000153	0.002899	-0.115206	-0.007172	
-0.000153	0.000153	-0.116426	-0.003510	
-0.007477	-0.000763	-0.140535	-0.007172	
-0.003815	0.000763	-0.156711	-0.008392	
0.000763	0.001068	-0.113985	-0.005951	
0.002899	0.006561	0.027008	-0.003510	
0.005646	0.002899	0.090791	-0.001984	
0.001984	0.000763	0.048982	-0.003510	
0.000763	-0.003204	0.028839	-0.011139	
0.000458	-0.008392	0.086213	-0.013580	
0.001068	-0.007172	0.086823	-0.012360	
0.002594	-0.008087	0.007172	-0.018463	
0.006256	-0.005951	0.017853	-0.019989	
-0.002289	-0.015717	-0.009613	-0.030670	
-0.000153	-0.007477	-0.000153	-0.029449	
-0.002899	-0.007782	0.000153	-0.037385	
0.004425	0.004120	0.006866	-0.036775	
-0.003510	-0.002289	-0.010223	-0.040132	
0.004730	0.007172	-0.015717	-0.036164	
0.003815	0.001984	-0.029144	-0.037995	
0.005035	0.002899	-0.043794	-0.033723	
0.000458	0.002289	-0.044709	-0.035554	
0.008087	0.005951	-0.042573	-0.026398	
0.003815	0.000763	-0.032197	-0.027313	
0.001678	0.002899	0.001984	-0.027313	
-0.004425	0.000458	0.036775	-0.028534	
0.003204	0.001984	0.088044	-0.026093	
-0.001984	-0.000153	0.060578	-0.022430	
-0.001678	0.003204	0.007172	-0.014496	
0.001068	0.000763	-0.046235	-0.011139	
0.001678	0.003815	-0.105440	-0.012054	
-0.003815	0.006561	-0.166476	-0.019073	
-0.007477	-0.000763	-0.114290	-0.016327	
-0.003510	0.005035	-0.055390	-0.001678	
-0.005035	0.002594	0.032502	-0.007172	
0.000763	0.008087	0.245823	-0.003204	
-0.006866	0.003204	0.138704	-0.006256	
-0.003204	0.011749	-0.369421	-0.007782	
-0.012970	0.003204	-0.677043	-0.013275	
-0.003510	0.006256	0.091401	-0.006866	
-0.008087	0.004425	0.304418	-0.007172	
-0.007477	0.006561	0.079194	-0.005035	
-0.000763	0.005646	0.551003	-0.006256	
-0.009003	0.000458	0.501564	-0.014191	
-0.003510	0.002899	0.245823	-0.014496	
-0.005341	0.000458	0.147860	-0.012054	
-0.002899	0.003815	0.254978	-0.013580	
-0.008392	-0.000763	0.043489	-0.019684	
-0.003815	0.007172	0.036469	-0.005646	
-0.013885	0.002594	0.030060	-0.008392	
-0.008392	0.010529	-0.002899	0.000153	
-0.015717	0.000153	-0.050202	-0.001984	
-0.005951	0.007172	-0.083161	0.004425	
-0.003510	0.001984	-0.192111	0.006561	
-0.001068	0.008087	-0.103304	0.009918	
-0.000153	0.003815	0.125887	0.009918	
-0.002899	0.001984	0.008392	0.014191	
-0.003815	-0.001678	-0.106661	0.007172	
-0.002289	0.001068	-0.110323	0.010834	
-0.003815	0.004120	-0.124666	0.013885	
-0.005341	0.002289	-0.136263	0.015411	
-0.001678	0.000458	-0.095980	0.018158	
-0.002899	0.005035	0.029144	0.016022	
0.000458	0.007782	0.037385	0.016632	
-0.005341	0.005951	-0.009308	0.020599	
-0.000763	0.012054	-0.096590	0.023651	
-0.002899	0.009003	-0.189364	0.021515	
-0.004120	0.010529	-0.212558	0.015106	
-0.004425	0.005951	-0.139620	0.010223	
-0.004425	0.007782	0.022736	0.012665	
-0.011139	0.000458	0.101778	0.005035	
-0.005951	0.004120	0.094149	0.011444	
-0.005035	0.001068	0.037385	0.011444	
-0.005951	0.004120	0.074922	0.012970	
-0.003815	0.000763	0.038301	0.004425	
-0.006866	0.000763	0.037080	0.000763	
-0.009003	0.002899	0.021210	-0.002899	
-0.006866	-0.001068	0.070649	-0.005035	
-0.004425	-0.002899	0.177157	-0.001373	
-0.007782	0.000153	0.155794	0.000153	
-0.003510	0.004425	0.077973	0.006561	
-0.005035	-0.001984	0.028839	0.003815	
0.000763	0.004120	-0.023346	0.002289	
-0.002289	-0.000763	0.001068	-0.012054	
0.003815	0.003204	-0.005341	-0.003204	
-0.003815	0.002289	0.001984	-0.007172	
0.002594	0.012665	-0.009613	-0.002289	
-0.005341	0.006561	-0.094454	-0.005341	
-0.003204	0.007782	-0.095369	-0.008392	
-0.008087	0.005035	-0.182651	-0.013275	
-0.006866	0.006561	-0.152742	-0.005951	
-0.006866	0.002289	0.065156	-0.007172	
-0.007477	0.005951	0.052949	-0.006256	
-0.009003	0.007172	0.336156	-0.010529	
-0.007172	0.005951	0.246433	-0.005035	
-0.006866	0.010834	0.141146	-0.004425	
-0.014191	0.000763	0.084077	-0.020599	
0.001678	0.005035	-0.007477	-0.010223	
-0.005341	0.001984	-0.129244	-0.020294	
-0.001678	0.008392	-0.231785	-0.025787	
-0.002289	0.000153	-0.104830	-0.027618	
0.007782	0.011749	0.002899	-0.016327	
-0.001373	0.006256	-0.034638	-0.027924	
0.006256	0.012665	0.014496	-0.019989	
0.001984	0.009003	0.087739	-0.024261	
-0.002289	0.010529	0.088044	-0.020599	
-0.006256	0.002289	0.045320	-0.027313	
-0.009308	-0.002899	0.056611	-0.024261	
-0.016022	-0.012360	0.201877	-0.027313	
-0.011139	-0.011444	0.155794	-0.022736	
-0.008392	-0.005646	0.043489	-0.022430	
-0.009613	-0.001068	0.030060	-0.025787	
-0.005341	0.002289	0.012665	-0.026398	
-0.004425	0.001678	-0.024567	-0.020294	
-0.001068	0.010223	-0.076142	-0.014496	
-0.005035	0.007172	-0.114595	-0.019379	
0.001984	0.013885	-0.127718	-0.009308	
0.002289	0.016022	-0.084382	-0.014191	
0.006866	0.019073	-0.019073	-0.009003	
0.004120	0.014801	0.027924	-0.012360	
0.010834	0.011139	0.044709	-0.005646	
0.004730	0.000153	0.041657	-0.007782	
0.008698	0.000458	0.008392	-0.004425	
0.000763	-0.013275	0.020294	-0.013275	
-0.000763	0.000763	0.032197	-0.005646	
-0.001068	-0.005035	0.024261	-0.010529	
-0.001984	-0.003204	0.021210	-0.007782	
-0.002289	0.001984	0.010529	-0.004120	
0.001984	0.001678	-0.025482	-0.009613	
0.002289	0.002899	-0.049287	-0.009003	
-0.002289	-0.001068	-0.050508	-0.011749	
-0.005035	0.002899	-0.044404	-0.005035	
-0.005035	-0.003510	-0.029449	-0.014496	
-0.005035	-0.000763	-0.010223	-0.005951	
-0.008087	-0.000763	-0.008087	-0.009918	
-0.001984	0.001068	-0.001068	-0.006866	
-0.010834	-0.009308	-0.007477	-0.014191	
-0.003815	0.005646	0.006866	-0.005951	
-0.005341	0.001984	0.003204	-0.015106	
0.005035	0.007172	0.017242	-0.008392	
-0.002289	0.006256	0.027008	-0.014496	
-0.001068	0.008087	0.042878	-0.010223	
-0.003815	0.004425	0.035554	-0.013580	
-0.001678	0.002594	0.021210	-0.011444	
0.002594	0.009003	0.009003	-0.005951	
-0.002289	0.000153	0.011139	-0.011444	
0.004425	0.003204	0.033418	-0.001984	
-0.003510	-0.001678	0.020599	-0.009308	
0.005951	0.004120	0.017853	-0.003510	
-0.004425	-0.005341	0.014191	-0.007782	
0.002594	0.009918	0.020294	0.005035	
-0.004425	0.006256	0.013275	0.003204	
0.000763	0.010223	0.071259	0.014801	
-0.002289	0.011139	0.086213	0.009918	
0.003204	0.019379	0.112154	0.007172	
0.001678	0.016327	0.086213	0.005951	
0.006256	0.017242	-0.001068	0.012970	
-0.001373	0.013885	-0.054170	0.021210	
-0.000763	0.010834	-0.132601	0.026093	
-0.004425	-0.001984	-0.182956	0.020905	
-0.003204	0.000153	-0.139620	0.018158	
-0.006866	-0.008392	0.014191	0.008392	
-0.020905	-0.010223	-0.014191	0.013885	
-0.021210	-0.002289	0.065156	0.018463	
-0.018158	-0.004120	0.082551	0.012665	
-0.014191	-0.008392	0.032197	0.010834	
-0.009308	-0.009918	0.045625	0.003204	
-0.006866	-0.006866	0.030060	0.002899	
0.004730	-0.006256	0.007172	-0.011139	
0.054475	0.005951	0.021210	-0.009308	
0.004730	0.004425	0.032502	-0.010223	
-0.005341	0.009003	0.028229	-0.014496	
0.011139	0.002594	0.012665	-0.023651	
-0.023956	0.011139	0.013885	-0.016327	
-0.057221	0.005035	0.012665	-0.023346	
-0.062104	0.004120	0.022736	-0.015717	
-0.063020	-0.003510	0.046540	-0.022125	
-0.047456	0.002899	0.056306	-0.019989	
-0.044099	0.001984	0.021210	-0.015106	
-0.043489	0.004425	-0.017853	-0.023346	
-0.031587	0.010834	-0.062104	-0.019684	
-0.022125	0.007782	-0.093843	-0.020294	
-0.013885	0.012970	-0.161593	-0.009918	
-0.018158	0.007782	-0.156711	-0.006256	
-0.011444	0.000763	-0.120699	-0.015106	
-0.011444	-0.013580	-0.251621	-0.013885	
0.001068	-0.007172	-0.222324	-0.000763	
0.001068	-0.005951	0.280918	-0.009308	
0.001068	0.000763	0.556497	-0.002289	
-0.002289	-0.002289	0.296178	-0.011139	
-0.000153	-0.001068	0.337682	-0.009003	
0.003204	-0.003204	0.276646	-0.007782	
0.009918	0.007782	0.173495	-0.008392	
0.011139	0.012970	0.087434	-0.005951	
0.010223	0.016022	-0.005646	-0.005035	
0.007782	0.014801	-0.116732	0.001984	
0.000458	0.010529	-0.242466	0.004425	
0.005951	0.008087	-0.181125	0.000153	
0.009003	0.002289	-0.159152	0.000153	
0.009918	0.013275	-0.232395	0.012970	
0.023651	0.002289	0.026398	0.002594	
0.042878	0.009308	-0.110628	0.005035	
0.011139	-0.001984	-0.391394	-0.013580	
-0.007477	-0.010834	-0.115206	-0.004120	
-0.022430	-0.012054	0.455787	0.008087	
-0.029755	-0.003204	0.188754	-0.000763	
-0.031587	-0.003510	0.051118	-0.012054	
-0.017242	-0.005035	0.229038	0.002899	
-0.013275	-0.016327	0.261692	0.000763	
-0.001373	-0.003510	0.228428	0.008087	
0.018158	-0.005951	0.150606	0.000153	
0.124361	-0.002289	-0.058747	0.000153	
0.126497	0.010834	-0.207065	-0.004120	
0.012054	0.016327	-0.239414	-0.017548	
-0.056916	0.029755	-0.074922	-0.005646	
-0.141451	0.011749	-0.058442	-0.021820	
-0.131685	0.010223	0.026398	-0.008087	
-0.098116	0.000153	0.095980	0.000763	
-0.066377	-0.001678	0.095675	0.015411	
-0.008087	-0.015106	-0.018463	0.029449	
0.074922	-0.016327	-0.024261	0.038301	
0.042878	-0.015411	-0.031281	-0.003204	
0.011139	0.013275	-0.041657	-0.005035	
-0.014191	0.009003	-0.035859	-0.011444	
-0.019684	0.003204	-0.032502	-0.016327	
-0.023956	-0.007172	0.078584	-0.001984	
-0.019989	-0.003815	0.096895	0.037080	
-0.015717	-0.013885	-0.143282	0.048676	
-0.005035	-0.014191	-0.298924	0.028839	
-0.005951	-0.005646	-0.222019	0.028229	
-0.002289	0.003204	0.000458	0.023651	
0.001068	-0.000763	-0.110628	0.010834	
0.009003	-0.003815	-0.214999	-0.003510	
0.018463	0.016022	-0.258335	-0.030060	
0.024261	0.011749	0.022125	0.004120	
0.035249	0.026703	-0.277866	0.064240	
0.017242	0.016632	-0.196994	0.047456	
0.010223	0.016022	0.784772	0.029144	
0.001678	0.018768	-0.225986	0.018463	
0.009613	0.019989	-0.481117	0.022430	
0.008698	0.012970	0.381323	0.011444	
0.014801	0.019073	0.547952	-0.010223	
0.009003	0.010834	0.487831	-0.035859	
0.001984	0.006561	0.284276	-0.042573	
-0.003510	0.005035	0.090180	-0.029449	
-0.013580	0.010529	0.153963	-0.007172	
-0.019684	0.013885	0.101168	-0.008392	
-0.027924	0.006256	0.024567	-0.011749	
-0.023041	0.006256	-0.040742	0.001678	
-0.018158	-0.009003	-0.155794	-0.039521	
0.013885	-0.003510	-0.075532	-0.048066	
0.021820	-0.000763	0.105440	-0.033418	
0.037995	0.018158	0.253147	-0.021820	
0.008698	0.006561	0.362097	-0.048066	
-0.013885	0.003815	0.079804	-0.045014	
-0.038911	-0.000763	-0.294347	-0.031587	
-0.042878	0.011749	-0.221409	-0.007172	
-0.042878	0.010834	0.136263	-0.005341	
-0.031587	0.010529	0.320287	-0.022430	
-0.035249	0.005035	-0.045320	-0.031587	
-0.030975	0.010834	-0.425269	-0.025787	
-0.032502	0.016632	-0.672465	-0.017853	
-0.023346	0.001068	-0.746319	-0.013580	
0.088655	-0.005035	0.155489	-0.013275	
0.153658	-0.002289	0.432899	-0.026398	
0.081330	0.022736	-0.088655	-0.034944	
-0.000763	0.030670	-0.425574	-0.046235	
-0.004425	0.002289	0.060578	-0.054170	
-0.019989	-0.047761	0.051728	-0.060578	
-0.068208	-0.051118	0.137178	-0.042878	
-0.166171	-0.041047	0.944381	-0.034028	
-0.204318	-0.037080	0.101473	-0.017853	
-0.126497	-0.021515	0.022736	-0.023956	
-0.055085	0.005951	0.147249	-0.029755	
-0.013580	0.003204	-0.096590	-0.040437	
-0.042268	0.012054	-0.166781	-0.030365	
-0.062409	0.022430	-0.032502	-0.028534	
-0.001068	0.026703	0.024872	-0.017853	
0.045014	0.019989	0.005341	-0.000763	
0.062409	0.036469	-0.104219	0.033113	
0.062715	0.056916	0.039216	0.043794	
0.074006	0.053254	0.101168	0.042878	
0.078889	0.020905	0.014191	-0.017853	
0.052339	0.027924	-0.053559	-0.038606	
0.052949	0.044404	-0.030060	-0.074922	
0.048676	0.037385	-0.029144	-0.111544	
0.057832	0.031281	-0.027924	-0.099337	
0.015717	0.004120	-0.031587	-0.189670	
-0.034944	-0.046540	-0.015411	-0.209811	
-0.045930	-0.104830	-0.004120	-0.156711	
-0.100252	-0.094454	0.015411	0.124666	
-0.082551	-0.050202	0.019989	0.291295	
-0.026093	0.009918	0.007172	0.298924	
-0.005646	0.014191	-0.001373	0.103609	
0.008087	0.002594	0.001678	0.028229	
-0.044099	0.019989	0.004120	0.071259	
-0.007782	0.040742	0.008392	0.006256	
0.098116	0.070649	0.011749	-0.019684	
0.393835	0.102999	0.017853	-0.122225	
0.586709	0.193027	0.025177	-0.272373	
0.236362	0.217441	0.021210	-0.221714	
-0.095369	0.179904	0.019989	0.041352	
-0.191806	0.056916	0.001984	0.212558	
-0.211337	-0.072785	-0.007172	0.346838	
0.037995	-0.174106	-0.021515	0.279697	
0.269627	-0.223545	-0.015717	0.157321	
0.088349	-0.279087	-0.021210	0.123140	
-0.223545	-0.250706	-0.013885	-0.015717	
-0.412757	-0.178073	-0.014496	-0.052033	
-0.381018	-0.120394	-0.009003	-0.005035	
-0.243992	-0.078279	0.016327	-0.068208	
-0.113375	0.044709	0.034333	-0.142061	
-0.023956	0.074311	0.009003	-0.153963	
0.075227	0.028839	-0.001068	0.026093	
0.283971	-0.035554	-0.000763	0.060273	
0.083467	-0.079194	-0.010834	-0.370337	
0.094454	-0.096285	-0.014496	-0.901960	
0.299535	-0.034028	-0.010223	-0.785687	
0.106661	0.127413	0.020294	0.147554	
-0.117952	0.219883	0.043183	0.721905	
-0.233921	0.215304	0.041657	0.525368	
-0.350195	0.102388	0.009918	0.281223	
-0.158542	0.028839	0.005951	0.303807	
0.348669	0.048676	0.014801	0.291600	
0.144808	0.135653	0.016327	0.126802	
-0.224155	0.152437	-0.000763	-0.003510	
-0.165866	0.101473	-0.001068	-0.125582	
0.142366	0.049897	-0.018463	-0.129854	
0.137178	-0.014191	-0.034028	-0.125887	
0.002289	-0.125887	-0.041963	-0.221409	
-0.131380	-0.215915	-0.046845	-0.492409	
-0.278172	-0.132906	-0.041352	-0.712749	
-0.259556	-0.057832	-0.025482	-0.431678	
-0.161899	-0.048676	0.006561	0.012054	
-0.313573	-0.027008	0.015411	-0.133211	
-0.187839	-0.024261	-0.003815	-0.146029	
0.166171	-0.162509	-0.045625	-0.430762	
0.530251	-0.272678	-0.041352	0.406042	
0.286412	-0.126497	-0.034638	1.041123	
-0.312352	0.077668	-0.045930	0.313878	
-0.299840	0.135347	-0.003815	0.130159	
0.034944	0.182956	0.061494	0.445106	
0.213473	0.211947	0.118563	0.751507	
0.316930	0.258335	0.130465	0.585183	
0.336766	0.213778	0.073396	0.374609	
0.250401	0.087739	0.067597	0.269321	
0.394140	-0.035249	0.086213	0.193942	
0.457007	-0.075532	0.099642	0.112154	
0.207065	-0.020905	0.089265	0.009918	
-0.043794	0.024872	0.073091	0.120089	
-0.081025	-0.031281	0.039216	0.052949	
0.010529	-0.106661	-0.035859	-0.240025	
-0.058442	-0.121614	-0.088349	-0.594034	
-0.195468	-0.090180	-0.069123	-0.554055	
-0.000763	-0.036469	0.006256	-0.229954	
0.124361	0.099337	0.037385	-0.570230	
-0.314794	0.193027	0.027924	-0.554971	
-0.558633	0.121920	0.048371	0.257725	
-0.226597	0.054475	0.084992	0.385595	
0.127108	0.023346	0.066682	0.112459	
-0.143587	-0.030060	0.032197	0.155489	
-0.513466	0.019073	0.016022	-0.032502	
-0.511635	0.106966	0.001678	-0.166781	
-0.338292	0.175632	-0.013275	-0.052949	
-0.579690	0.146029	-0.001678	0.112764	
-0.485390	0.182040	0.005341	0.203403	
-0.254063	0.060884	0.014496	-0.072175	
-0.219883	-0.160983	0.025482	-0.371557	
0.026398	-0.326085	0.034638	-0.464026	
0.488441	-0.338597	0.047761	-0.886702	
0.463111	-0.372778	0.055390	-0.695659	
0.159457	-0.339513	0.049287	-0.095980	
0.168612	-0.131075	0.044709	0.187228	
0.243076	-0.037080	0.027924	0.310521	
0.389563	-0.050202	-0.009918	0.241550	
0.560464	-0.047151	-0.049897	0.026093	
0.500038	0.059052	-0.063020	0.147860	
0.497292	0.140535	-0.076142	0.201571	
0.289769	0.213168	-0.090486	-0.123140	
-0.037995	0.322423	-0.087129	-0.373999	
-0.225376	0.285192	-0.000153	-0.083161	
-0.289159	0.201571	0.065766	0.626078	
-0.262913	0.074922	0.042878	0.746319	
-0.228733	-0.093232	0.001984	0.388647	
-0.133211	-0.247349	0.016327	0.186923	
-0.019684	-0.377050	0.006256	0.092011	
0.031281	-0.244297	0.010529	-0.063935	
-0.048066	-0.060273	0.008087	-0.264439	
-0.054475	0.056306	0.003204	-0.233921	
-0.011749	0.089265	-0.013275	-0.082856	
0.014801	0.151217	0.004120	-0.074006	
0.025787	0.169528	-0.013885	-0.057832	
0.057221	0.137484	0.016937	-0.036775	
0.048676	0.132601	0.055696	-0.232395	
0.040132	0.111238	0.046235	-0.313268	
0.032807	0.094454	0.015106	-0.380713	
0.028534	0.074311	0.004120	-0.280918	
0.023041	0.035859	0.006561	-0.307164	
0.014191	0.015717	0.023041	-0.127718	
0.014191	0.012970	0.048982	0.063020	
0.006256	0.002594	0.035554	-0.032807	
-0.000763	-0.005646	0.018463	0.020294	
-0.009613	-0.015106	0.008087	0.247654	
-0.010834	-0.012360	0.024261	0.458838	
-0.019073	-0.019684	0.026398	0.261692	
-0.016022	-0.023346	0.011139	-0.174106	
-0.020294	-0.024261	-0.012970	-0.315404	
-0.016022	-0.023346	-0.019073	-0.269932	
-0.016327	-0.027313	-0.009003	0.250706	
-0.013885	-0.021210	-0.010223	0.698405	
-0.013275	-0.022430	-0.009918	0.464637	
-0.009308	-0.017548	-0.005035	0.167697	
-0.014801	-0.015717	-0.037385	-0.168307	
-0.018158	-0.009308	-0.037995	-0.119783	
-0.019379	-0.012970	-0.019073	0.127108	
-0.023956	-0.014801	0.003204	-0.071259	
-0.023956	-0.013275	0.032197	-0.193332	
-0.029449	-0.022430	0.022736	0.227207	
-0.031281	-0.027313	0.013885	0.142672	
-0.030975	-0.025482	-0.006866	-0.143282	
-0.025177	-0.015106	0.002289	0.041657	
-0.027313	-0.015411	0.045625	0.311131	
-0.015411	-0.000763	0.070039	0.067292	
-0.024261	-0.008087	0.037385	-0.161593	
-0.007782	0.004425	0.024261	0.006561	
-0.013275	0.002899	-0.003510	-0.120394	
-0.012054	0.005035	-0.018158	-0.253452	
-0.017853	-0.001984	-0.009613	-0.320592	
-0.014191	0.003204	0.011749	-0.052033	
-0.016022	0.004120	0.023346	-0.208896	
-0.018158	0.002899	0.023041	-0.397802	
-0.019684	0.004425	0.019989	-0.225681	
-0.016022	0.008698	0.013275	0.376745	
-0.013885	0.011749	0.014496	0.276646	
-0.013275	0.010223	0.009003	0.002289	
-0.005035	0.021820	0.017853	-0.041657	
-0.006256	0.017853	0.008087	-0.196383	
-0.001678	0.024567	0.009003	-0.168918	
-0.005341	0.021820	0.012970	-0.137789	
-0.003815	0.018158	0.021210	-0.154268	
-0.010834	0.010223	0.019989	-0.206454	
-0.006866	0.010223	0.025177	-0.115816	
-0.013580	-0.000763	0.022125	-0.103304	
-0.011139	-0.000763	0.018768	-0.036469	
-0.001984	-0.009308	0.019073	0.085603	
0.006561	-0.001984	0.028839	0.106966	
0.004730	-0.005341	0.026093	0.089265	
-0.000763	-0.009613	0.016022	-0.040437	
-0.007782	-0.007782	0.018463	-0.099337	
-0.007477	-0.005646	0.012360	-0.055085	
-0.009308	-0.005341	0.008392	0.132601	
-0.016022	-0.007782	0.005951	0.185397	
-0.005341	0.000763	0.009308	0.107576	
-0.000763	-0.005035	0.009308	0.060273	
0.012665	-0.000763	0.015411	0.005341	
0.008698	-0.002289	0.011139	-0.000763	
0.016937	0.003204	0.016327	0.018768	
0.019073	-0.002899	0.012360	0.045930	
0.022736	0.004425	0.017242	0.041657	
0.014191	0.004120	0.009308	0.003204	
0.013275	0.008698	0.011139	0.016022	
0.009918	0.012665	0.009918	0.009003	
0.014496	0.020294	0.011139	0.011139	
0.012665	0.018463	0.004120	0.010223	
0.008392	0.021820	0.006256	0.014801	
0.014801	0.023346	0.010529	0.016632	
0.012665	0.017853	0.006561	0.017242	
0.019073	0.018768	0.010223	0.023041	
0.015106	0.019073	0.006866	0.018158	
0.014801	0.022430	0.009918	0.016937	
0.015106	0.018158	0.006561	0.012970	
0.016937	0.022125	0.008392	0.019379	
0.005035	0.010529	0.004120	0.007172	
0.005035	0.011749	0.008698	0.010834	
-0.008392	0.009003	0.002594	-0.004120	
-0.009613	0.010834	0.002899	-0.006256	
-0.012054	0.002899	0.000458	-0.009918	
-0.009308	0.009308	0.002594	-0.007172	
-0.015411	0.004120	0.002899	-0.009918	
-0.021210	0.000763	-0.003510	-0.011749	
-0.017548	0.000458	-0.001678	-0.011139	
-0.014801	0.003204	0.001068	-0.007477	
-0.012360	0.004120	0.002289	-0.007477	
-0.009613	0.002289	-0.001068	0.000763	
-0.011444	0.003204	-0.000763	0.008087	
-0.015411	0.000153	-0.005646	0.011444	
-0.014801	-0.003510	-0.004425	0.019379	
-0.015717	-0.004120	-0.002289	0.016632	
-0.014801	-0.003510	-0.001068	0.016632	
-0.015106	-0.012054	-0.003815	0.018768	
-0.011139	-0.002289	-0.000153	0.023651	
-0.017548	-0.009003	0.003815	0.018158	
-0.018158	-0.000763	0.024567	0.025177	
-0.028229	-0.009918	0.020294	0.018158	
-0.034333	-0.006866	0.019989	0.021515	
-0.029144	-0.007477	0.016632	0.022430	
-0.019684	-0.006256	-0.045320	0.029755	
-0.003204	-0.000763	-0.120394	0.033113	
0.010223	-0.001678	-0.131685	0.034638	
0.015106	-0.005035	-0.008087	0.037690	
0.001068	-0.012054	0.189975	0.029449	
-0.005035	-0.009613	0.242771	0.023041	
-0.016022	-0.015717	-0.027313	0.019379	
-0.016327	-0.007477	-0.106661	0.025482	
-0.023346	-0.012970	-0.073091	0.020905	
-0.016937	-0.006256	-0.142366	0.033418	
-0.009613	-0.006256	-0.054170	0.035249	
-0.006866	-0.005035	0.176547	0.037080	
-0.005341	-0.007782	0.104830	0.026703	
0.001068	-0.003204	0.019073	0.023041	
-0.010834	-0.003815	-0.021820	0.001984	
-0.011139	-0.003510	-0.151522	-0.001984	
-0.012970	-0.008392	-0.153353	-0.003510	
-0.013275	-0.005341	-0.177768	-0.007477	
-0.014191	-0.008087	0.035554	-0.005951	
-0.015411	-0.006256	0.340734	-0.002289	
-0.011139	-0.002899	0.220493	-0.003510	
-0.008087	-0.005341	0.263218	-0.000763	
0.001068	0.002899	0.077668	-0.000763	
-0.001373	-0.003815	-0.153353	-0.008392	
0.008087	0.005951	-0.235752	-0.003510	
0.006256	0.001984	-0.044099	-0.007782	
0.014191	0.008698	0.153658	0.008698	
0.001984	0.000763	0.022736	-0.008087	
0.004120	0.009308	-0.036164	-0.017853	
-0.000763	0.005035	-0.021515	-0.021820	
0.001984	0.014191	0.117952	-0.013580	
-0.013885	0.003204	0.082856	-0.025787	
-0.011139	0.007172	0.017853	-0.022125	
-0.006866	0.017242	-0.116732	-0.026703	
-0.001068	0.021820	-0.154879	-0.032807	
-0.004120	0.015717	0.037385	-0.037385	
-0.010223	0.016022	-0.050202	-0.040132	
-0.012054	0.012970	-0.056306	-0.041047	
-0.010834	0.009308	0.203097	-0.045625	
-0.003815	0.013885	0.029449	-0.030670	
-0.015411	0.010529	-0.050202	-0.036469	
-0.011139	0.012360	-0.058747	-0.037690	
-0.009003	0.008698	-0.214389	-0.033723	
-0.015106	0.012054	0.137178	-0.030365	
-0.018158	0.008698	0.350500	-0.040437	
-0.019073	0.009308	0.071259	-0.040742	
-0.024872	0.011139	-0.217746	-0.050508	
-0.023041	0.009003	-0.124971	-0.047151	
-0.031892	0.002289	-0.032502	-0.050508	
-0.023956	0.010834	-0.049592	-0.041963	
-0.024261	0.007172	0.051728	-0.040132	
-0.025177	0.006866	0.179904	-0.034333	
-0.029449	0.006256	0.249180	-0.025482	
-0.029144	0.008698	0.144197	-0.030670	
-0.030365	0.008698	-0.026093	-0.035554	
-0.025177	0.004730	-0.070649	-0.029449	
-0.015411	0.010834	-0.170749	-0.019379	
-0.008087	0.010223	-0.343786	-0.020294	
0.002899	0.010223	-0.451819	-0.015411	
0.006256	0.004120	-0.202487	-0.015411	
0.017242	0.004120	-0.229954	-0.009003	
0.015106	-0.003510	-0.746014	-0.013885	
0.025787	0.004120	-0.131075	-0.010223	
0.022736	0.001984	0.431067	-0.012970	
0.030060	0.002289	0.578469	-0.005951	
0.024872	0.003815	0.549783	-0.014191	
0.022125	0.003815	0.316625	-0.017242	
0.019684	-0.001373	0.249180	-0.015717	
0.019073	-0.000763	0.174411	-0.009003	
0.024261	-0.001068	0.100252	-0.005341	
0.027008	-0.003510	-0.011139	-0.009918	
0.027924	-0.007782	-0.073701	-0.005646	
0.023041	-0.009918	-0.055390	-0.014191	
0.030365	-0.002899	0.002594	-0.009308	
0.027313	-0.005646	0.026093	-0.010223	
0.036469	-0.001678	0.026093	0.002899	
0.034944	-0.004120	-0.021820	-0.004120	
0.036469	-0.004425	-0.081635	-0.001373	
0.027313	-0.012970	-0.106356	-0.000153	
0.027924	0.003815	-0.056306	0.011444	
0.025787	-0.003815	-0.067903	0.002899	
0.027924	0.002594	-0.074311	0.008698	
0.025787	-0.000153	-0.047456	0.005341	
0.025787	-0.005035	-0.010834	0.009918	
0.016937	-0.006256	0.045014	0.006866	
0.013275	0.002594	0.188144	0.008698	
0.004425	-0.008392	0.207370	0.002289	
-0.004120	-0.012970	0.088044	0.002594	
-0.003204	-0.009308	-0.008087	0.011139	
-0.002899	-0.006256	-0.027008	0.015411	
-0.003510	-0.004120	0.008392	0.017242	
-0.012054	-0.006866	-0.093843	0.016327	
-0.008087	0.004120	0.079499	0.015411	
-0.018158	-0.005341	-0.103914	0.006256	
-0.012360	0.004730	0.008698	0.010223	
-0.018158	0.006561	0.239109	0.004120	
-0.015717	0.009003	0.251316	0.010223	
-0.022430	0.013275	0.088044	0.015411	
-0.023346	0.023041	-0.114901	0.009918	
-0.035859	0.016022	-0.182956	-0.001373	
-0.043794	0.022430	-0.019989	0.000763	
-0.050202	0.016937	0.025482	0.007172	
-0.048066	0.019073	-0.079194	0.008392	
-0.047151	0.017242	-0.019989	-0.001984	
-0.047151	0.016327	0.026398	-0.005646	
-0.041963	0.017853	0.003204	-0.001984	
-0.045014	0.005646	-0.136263	-0.009918	
-0.034944	0.014191	-0.314794	0.005035	
-0.036164	0.005035	-0.324254	0.000458	
-0.031892	0.000458	-0.287938	-0.002899	
-0.025482	0.002594	-0.280613	-0.001373	
-0.019379	0.002594	-0.147554	-0.003510	
-0.020294	-0.005035	0.594339	-0.020294	
-0.011139	-0.001373	0.321202	-0.017548	
-0.007782	-0.003510	0.030975	-0.016327	
-0.001068	-0.003510	0.072785	-0.003815	
0.006561	-0.006256	0.198520	0.005951	
0.012054	-0.005341	0.573281	0.002594	
0.012665	-0.002899	0.218661	-0.009918	
0.011139	-0.001984	0.098726	-0.014191	
0.005646	0.001068	0.183871	-0.013885	
-0.005341	0.009003	0.129244	-0.014191	
-0.004425	0.014496	0.007782	-0.008087	
-0.017853	0.013275	0.222630	-0.012054	
-0.023346	0.019073	0.036469	-0.003204	
-0.037385	0.005951	-0.025787	-0.005951	
-0.035249	0.006561	0.047151	-0.000763	
-0.040132	0.003204	-0.145113	-0.001678	
-0.030975	0.012970	-0.209811	0.005951	
-0.032197	0.003815	-0.041963	0.004425	
-0.024872	0.005951	-0.288548	0.008087	
-0.019684	0.005646	-0.250706	-0.001678	
-0.011139	0.004120	-0.077668	-0.003510	
-0.010223	0.000153	0.053864	-0.009918	
-0.009003	0.004425	0.031281	-0.019073	
-0.007477	-0.001678	0.163424	-0.023651	
0.002289	0.005035	0.301976	-0.017853	
0.005035	0.008392	0.108797	-0.019684	
0.008392	0.004730	-0.245823	-0.014496	
0.010529	0.000153	-0.337987	-0.014496	
0.010529	-0.003815	-0.490273	-0.003815	
0.012054	0.006561	-0.450294	0.005951	
0.004120	0.001068	-0.157016	-0.012054	
0.007782	0.009003	0.066377	-0.019989	
0.004120	0.008392	0.102388	-0.032807	
0.006866	0.004425	0.073091	-0.031587	
0.001984	0.001678	0.067292	-0.028229	
0.002899	0.012054	0.056306	-0.028229	
-0.001984	0.004120	0.261692	-0.034333	
0.003204	0.012970	0.209201	-0.023346	
-0.003510	0.004730	0.132601	-0.031892	
-0.002289	0.008698	0.061494	-0.020294	
-0.003815	0.008698	-0.171359	-0.030365	
0.001068	0.007782	0.178073	-0.025787	
0.002899	0.010223	0.304418	-0.016327	
0.010529	0.010529	-0.090791	-0.013275	
0.006256	0.005035	0.000153	-0.013885	
0.002594	-0.002289	0.200351	-0.017242	
0.009003	-0.003204	0.126192	-0.006866	
0.006256	-0.003510	-0.106661	-0.005951	
0.008698	-0.003204	-0.037995	0.000458	
0.005035	-0.009918	-0.067903	-0.003204	
0.006256	-0.007477	-0.098116	-0.000763	
-0.003815	-0.011139	-0.137789	-0.015717	
-0.001678	-0.007782	0.115816	-0.014496	
-0.000153	-0.003510	0.196078	-0.003510	
0.001984	-0.001068	0.038606	0.005341	
-0.003204	0.002899	-0.023041	0.004425	
-0.001678	-0.001678	-0.019684	0.004425	
0.000153	-0.004120	-0.011749	0.006561	
-0.003204	-0.000153	0.019379	0.003815	
-0.000763	0.004425	0.016937	0.011139	
-0.006256	0.000458	-0.002899	0.010834	
-0.002289	0.010834	-0.033113	0.012665	
-0.009003	0.003815	-0.130465	0.003815	
-0.012360	0.004425	-0.161593	0.005035	
-0.011444	0.002899	-0.145113	0.006866	
-0.005035	0.005951	-0.084382	0.018463	
-0.013580	-0.002289	0.296788	0.020599	
-0.010223	0.002899	0.493629	0.025482	
-0.015411	0.000763	0.322423	0.008392	
-0.003815	0.005646	0.140230	0.019989	
-0.015411	-0.007172	-0.102999	0.009308	
-0.005646	0.000763	-0.214999	0.008392	
-0.009003	-0.005646	-0.239414	0.004120	
-0.005646	-0.001373	-0.367895	0.000153	
-0.001373	-0.001068	-0.200961	-0.003815	
0.000763	-0.003510	-0.133821	0.000763	
-0.003510	-0.000153	-0.207980	0.001068	
-0.005646	-0.003815	0.040742	-0.009613	
-0.001984	-0.002289	0.504311	-0.009308	
-0.001068	0.000153	0.716716	-0.020294	
0.004730	0.004120	0.243687	-0.018463	
-0.002899	-0.002289	-0.037690	-0.031587	
-0.001068	-0.002289	-0.359655	-0.028229	
-0.001984	-0.003815	-0.433814	-0.025787	
-0.000153	-0.001373	-0.362097	-0.026398	
0.001678	-0.000763	0.173800	-0.027618	
0.007782	0.010529	0.542459	-0.018158	
0.004730	0.008392	0.063630	-0.022125	
0.009003	0.013885	0.207370	-0.026398	
0.004730	0.009308	0.114901	-0.027618	
0.002289	0.006866	0.024261	-0.021515	
0.002594	0.004120	-0.112764	-0.021515	
0.002594	0.004730	-0.020294	-0.013885	
0.001068	0.003815	0.022125	-0.007477	
-0.003204	-0.000763	-0.120089	-0.011749	
0.000458	0.006256	-0.158847	-0.004425	
-0.000153	0.007782	0.007172	0.002289	
-0.011444	0.004730	-0.033113	0.000763	
-0.015411	0.002289	-0.315099	0.006866	
-0.008087	0.008392	0.163424	0.014496	
-0.010834	0.008698	0.229343	0.011139	
-0.012360	0.006561	-0.121309	0.012665	
-0.019073	0.005035	-0.052949	0.005341	
-0.007477	0.010834	0.089570	0.007782	
-0.009613	0.001984	0.005341	0.008087	
-0.009003	0.005646	-0.116732	0.015106	
-0.012360	0.005035	-0.130465	0.014496	
-0.013885	0.009308	-0.073091	0.015106	
-0.016022	0.004425	-0.005646	0.016632	
-0.017242	0.007172	0.032807	0.017242	
-0.011749	0.006561	0.164340	0.019989	
-0.013580	-0.002899	0.150606	0.012360	
-0.006866	-0.001678	0.168307	0.012665	
-0.008087	-0.002899	0.037385	-0.000763	
-0.003204	0.000763	-0.039216	0.005035	
-0.004425	0.004120	-0.087129	0.009003	
-0.003510	0.008698	-0.149385	0.006866	
-0.008392	0.004730	-0.066682	-0.000153	
0.003815	0.009003	0.002594	-0.002899	
-0.002289	0.002289	0.045625	-0.005035	
-0.002289	0.005035	0.091401	0.001984	
-0.001984	-0.000153	0.061494	-0.004425	
0.002594	0.005951	0.041352	-0.007172	
0.000458	0.005951	0.016022	-0.017853	
-0.003815	0.006561	-0.031892	-0.016632	
-0.008392	0.006561	-0.093232	-0.009918	
-0.007172	0.002594	-0.143587	-0.020599	
0.001678	0.008392	-0.037385	-0.023651	
0.002289	0.010834	0.079194	-0.031587	
0.004730	0.014496	0.045014	-0.027618	
-0.001373	0.002289	0.097811	-0.029449	
0.003204	0.004120	0.180209	-0.022736	
0.002899	0.001984	0.197299	-0.025787	
0.008698	0.007172	0.191806	-0.017853	
0.000458	0.002289	0.081941	-0.020599	
0.006256	0.005035	-0.040132	-0.018463	
0.001984	-0.004425	-0.074311	-0.027313	
0.000458	-0.005341	-0.149080	-0.021210	
-0.005341	-0.002899	-0.123140	-0.022430	
-0.003510	-0.004120	-0.098116	-0.019989	
-0.004425	-0.007172	-0.103914	-0.017548	
-0.002899	-0.003510	0.083161	-0.016327	
-0.003815	-0.001984	0.082551	-0.017853	
-0.000153	-0.001068	-0.146639	-0.010223	
0.000458	-0.000763	-0.070649	-0.002899	
-0.001373	-0.001984	0.182345	0.000458	
0.003815	0.004425	0.241856	0.000153	
0.000153	0.000153	0.103914	-0.005646	
0.000763	0.002594	0.079194	-0.006866	
-0.003204	-0.000763	0.021210	-0.009003	
0.000458	0.002899	-0.063020	0.000153	
-0.009613	0.002594	-0.007477	-0.000153	
-0.010223	0.007782	-0.004120	0.003815	
-0.012970	0.001984	0.026703	-0.002899	
-0.009003	0.011139	0.080720	0.005341	
-0.009308	0.007172	-0.005951	-0.004425	
-0.005341	0.008698	-0.055696	0.001678	
-0.005951	0.006561	0.036469	0.004120	
-0.009613	0.009308	0.139620	0.009308	
-0.009003	0.011749	0.031281	0.007172	
-0.009308	0.006561	-0.122225	0.001678	
-0.008087	0.008392	-0.156405	0.001678	
-0.006866	0.008392	-0.127718	-0.006866	
-0.003204	0.009003	-0.119478	-0.003510	
0.001068	0.004120	0.139315	-0.002289	
0.003204	0.002594	0.135347	-0.005035	
0.001984	0.002899	-0.041963	-0.000763	
0.000458	0.004120	-0.034028	0.001678	
0.000458	0.003204	0.358435	-0.009918	
0.009613	0.012054	0.095369	-0.011444	
0.006866	0.005646	0.045320	-0.014191	
0.005646	0.009308	0.027008	-0.009003	
-0.001068	0.004120	-0.215304	-0.016022	
0.004730	0.007782	-0.152437	-0.003815	
-0.000153	0.003815	-0.023956	-0.007782	
-0.006256	0.000458	-0.359350	-0.015106	
-0.009003	0.000458	-0.251926	-0.017548	
-0.010223	-0.000763	-0.265659	-0.020599	
-0.015106	-0.005035	0.043183	-0.019379	
-0.016937	-0.004425	0.554055	-0.012054	
-0.013885	0.000458	0.618753	-0.016022	
-0.007172	-0.001373	0.261692	-0.020599	
0.004730	0.005646	0.057832	-0.017548	
-0.006256	-0.005951	-0.143282	-0.026093	
0.002289	0.005035	-0.085298	-0.016022	
-0.002899	-0.000763	-0.079194	-0.021820	
-0.001373	0.003204	-0.113985	-0.012054	
-0.006256	-0.001068	-0.130465	-0.017853	
0.004425	0.006256	-0.081025	-0.009003	
0.001678	0.000458	-0.013580	-0.003510	
-0.001984	0.002289	0.029144	-0.005341	
-0.003815	0.003204	0.012665	-0.012054	
-0.002289	0.005646	-0.052339	-0.009003	
-0.001984	0.010223	-0.125277	-0.006866	
-0.003204	0.012970	0.105745	-0.005035	
-0.002899	0.010834	0.239414	0.001678	
-0.003815	0.013275	0.000458	0.002899	
-0.009003	0.013275	-0.027618	0.001068	
-0.013885	0.011139	-0.102694	0.002899	
-0.014801	0.009918	0.054475	0.005341	
-0.015411	0.009308	-0.118258	0.004425	
-0.010834	0.009003	-0.042268	0.009308	
-0.013885	-0.002289	0.133211	0.008392	
-0.008087	0.003204	0.170138	0.015411	
-0.012360	-0.004120	0.248569	0.016632	
-0.009613	-0.000153	0.253147	0.026398	
-0.017853	-0.012054	-0.081941	0.021515	
-0.017242	-0.018463	-0.210422	0.016632	
-0.015411	-0.018158	-0.099337	0.003815	
-0.011139	-0.005646	-0.084077	0.009003	
-0.006866	-0.001373	0.057832	0.010529	
-0.009003	0.000763	-0.031281	0.001068	
-0.005341	-0.000153	-0.082246	0.004120	
-0.007477	0.000763	-0.205539	-0.000153	
-0.006256	0.003204	-0.357824	0.005341	
-0.022125	-0.000763	0.200656	0.000458	
-0.020905	0.010529	0.287633	-0.008392	
-0.014191	0.004425	0.050508	-0.025177	
0.005646	0.012360	0.117952	-0.015106	
0.010223	0.010223	0.071259	-0.017242	
0.016632	0.011749	0.048982	-0.016022	
0.013275	0.009308	0.042573	-0.016022	
0.018463	0.009308	0.028534	-0.017853	
0.052339	0.002289	-0.028534	-0.024261	
0.060273	0.001678	-0.010223	-0.026093	
-0.002289	-0.008087	0.001678	-0.027313	
-0.014191	-0.007477	-0.010223	-0.026093	
-0.016937	-0.009918	-0.016022	-0.027313	
-0.025482	-0.008392	-0.016937	-0.022736	
-0.029144	-0.002899	-0.020294	-0.021820	
-0.037385	-0.016022	-0.036775	-0.023956	
-0.035554	-0.016022	0.120089	-0.020599	
-0.039216	-0.013885	0.137789	-0.028839	
-0.029755	-0.000153	0.023041	-0.019379	
-0.027924	-0.001984	0.004730	-0.013580	
-0.013275	0.000153	-0.019073	-0.005951	
-0.012360	-0.000153	-0.204928	-0.007782	
-0.005951	0.006561	-0.271763	-0.001373	
-0.008392	-0.000763	-0.115206	-0.005035	
-0.001373	0.007782	-0.204928	-0.007172	
0.000763	0.003815	-0.067597	-0.005646	
0.023651	0.012054	0.290074	0.003204	
0.044709	0.016022	0.274204	-0.008087	
0.023651	0.016327	0.162204	-0.009918	
0.008698	0.012665	-0.031587	-0.007172	
0.012665	0.012970	0.036164	-0.009918	
-0.002289	0.011749	0.034638	0.003204	
-0.032197	0.006256	0.216220	-0.000763	
-0.048371	0.010529	0.104830	-0.005646	
-0.052033	0.011139	-0.010223	-0.022125	
-0.034944	0.014496	-0.099337	-0.012054	
-0.015411	0.006256	-0.019684	-0.001068	
-0.004120	0.014191	-0.022430	0.002289	
-0.016937	0.009308	0.053559	-0.010529	
-0.005341	0.019379	-0.026093	-0.005646	
-0.009613	0.016632	-0.171054	-0.010529	
-0.001984	0.012360	-0.023956	-0.009918	
-0.001068	0.001678	0.317845	-0.002289	
0.011139	0.005951	0.214694	0.005341	
0.030975	0.002594	0.029449	0.012360	
0.062715	0.000153	0.059663	0.014191	
0.044709	-0.005341	-0.075532	0.017548	
0.018463	-0.015717	-0.207370	0.016937	
0.000458	-0.013885	-0.216220	0.010834	
-0.023956	-0.013885	-0.199130	0.008698	
-0.019379	0.008087	-0.162509	0.025177	
-0.018158	0.000763	-0.067597	0.020905	
-0.005951	0.001678	-0.011749	0.022430	
-0.010834	0.004120	-0.029144	0.009918	
-0.006256	0.012665	-0.130159	0.019989	
-0.015106	0.003815	-0.151522	0.031587	
-0.014191	0.005035	-0.257114	0.038911	
-0.010834	0.004425	-0.199740	0.032807	
-0.010223	0.009308	0.717937	0.026703	
-0.005951	0.012665	0.464637	0.013885	
-0.005646	0.007782	0.081330	0.005951	
-0.009613	-0.003510	0.051728	0.000763	
-0.009613	-0.006866	-0.196994	0.009918	
-0.010223	-0.006256	-0.044404	0.008392	
-0.009918	-0.009308	0.049592	-0.002899	
-0.004425	-0.005646	-0.052949	0.000458	
0.051728	-0.014801	-0.248264	-0.006256	
0.124971	-0.015717	0.268711	-0.001984	
0.054475	-0.023956	0.433814	-0.015106	
-0.033113	-0.004120	-0.032197	-0.023346	
-0.095064	-0.008392	0.036164	-0.030670	
-0.075532	0.000763	0.101778	-0.019379	
-0.035249	-0.001984	-0.078889	-0.022430	
-0.005951	0.013275	-0.046845	-0.021210	
-0.013275	0.024567	0.071870	-0.021820	
-0.022125	0.035249	0.053559	-0.017853	
-0.037690	0.029755	0.005035	-0.030060	
-0.025787	0.023041	-0.218662	-0.020599	
0.004730	0.008087	-0.296788	-0.014191	
0.048066	0.013885	-0.100557	-0.007172	
0.006866	0.008698	0.143282	0.003204	
-0.045014	0.003815	0.356909	0.003815	
-0.073701	0.010834	0.314488	-0.017853	
-0.071259	-0.001068	0.070954	-0.027924	
-0.053864	-0.001373	0.248569	-0.019073	
-0.035249	0.000153	0.091706	-0.013275	
-0.025482	0.006561	-0.247349	0.007172	
-0.022430	-0.008392	-0.181430	-0.001984	
-0.012054	-0.006866	-0.136263	-0.009308	
-0.018158	0.005951	-0.074616	-0.015106	
-0.016327	0.005035	-0.023041	-0.028229	
-0.002899	0.014496	-0.093843	-0.036775	
0.012360	0.030975	-0.080720	-0.015717	
0.019073	0.026398	-0.028229	-0.012970	
0.011139	0.030670	-0.026093	-0.011749	
0.003815	0.023041	0.119478	-0.022736	
0.005035	0.013275	0.279087	-0.032197	
0.014191	-0.003815	0.262913	-0.029755	
0.017853	-0.021210	0.074922	0.026398	
0.013275	-0.019684	-0.061799	0.060884	
0.006866	-0.030975	-0.329137	0.035859	
-0.005341	-0.031587	-0.538796	0.029144	
-0.027924	-0.023041	-0.691386	0.015106	
-0.031281	-0.008392	-0.013580	-0.019073	
-0.007782	-0.021210	0.267490	-0.028839	
0.065156	-0.030060	-0.174716	-0.016022	
0.055390	-0.045930	0.163424	-0.027313	
-0.007782	-0.021820	0.540627	-0.030060	
-0.079804	-0.004120	0.340123	-0.055085	
-0.050508	0.010834	-0.212253	-0.025787	
-0.004425	0.004730	-0.172885	0.014801	
0.024872	0.002899	-0.133211	-0.001373	
0.033723	0.020905	0.249485	-0.023651	
0.098421	0.027313	0.326085	-0.040437	
0.193027	0.031892	0.330358	-0.007172	
0.180820	0.042573	0.079804	0.008698	
0.090486	0.072175	-0.012054	-0.001984	
-0.021820	0.044709	-0.301061	-0.017242	
-0.032197	0.030975	0.237278	-0.005341	
-0.010834	-0.011749	0.310521	-0.009308	
0.005951	-0.060273	-0.116121	-0.035554	
-0.022430	-0.062715	-0.172885	-0.036164	
-0.066987	-0.033418	-0.056306	-0.017548	
-0.141451	-0.018158	-0.159457	-0.033723	
-0.186007	0.000458	-0.025787	-0.037690	
-0.158542	0.008698	0.038301	-0.039521	
-0.082551	0.009003	0.108187	-0.054475	
-0.014191	0.022125	0.087129	-0.056611	
0.019073	0.051423	0.189670	-0.040742	
0.014191	0.045014	0.085908	-0.057221	
-0.001678	0.033418	-0.091706	-0.072480	
-0.021515	0.026398	-0.140230	-0.065156	
-0.033113	0.012970	-0.107882	-0.048066	
-0.012360	-0.005341	-0.108797	-0.039826	
0.021210	-0.022430	-0.020294	-0.016022	
0.038301	-0.005035	-0.010834	0.034638	
0.016937	-0.019989	-0.012970	0.053254	
0.016937	-0.012054	-0.003510	0.082551	
0.018463	0.003815	-0.030060	-0.037385	
0.035249	0.026398	-0.044709	-0.100863	
0.036469	0.034638	-0.127413	-0.135042	
0.020294	0.062715	-0.017853	-0.066682	
-0.065461	0.051118	0.213473	0.013275	
-0.087129	0.027008	0.079194	0.066987	
0.050813	0.012054	0.090180	-0.002289	
0.118868	0.019073	0.168918	0.166781	
0.152437	0.032502	0.160983	0.210727	
0.193027	0.061189	0.041352	0.008698	
0.156711	0.065156	-0.074616	-0.042878	
0.068513	0.051423	-0.084077	-0.128328	
-0.113070	0.055390	-0.029144	-0.088960	
-0.179294	0.036164	-0.062715	0.041657	
-0.133516	-0.040132	-0.037995	0.047151	
-0.083772	-0.130159	-0.023956	0.029144	
-0.015717	-0.108187	-0.023956	0.110628	
0.059358	-0.119478	-0.027618	0.083772	
0.049287	-0.029144	-0.015106	-0.009003	
0.008087	0.062104	-0.012360	-0.146029	
0.048066	0.016632	0.002594	-0.162204	
0.184787	-0.032502	0.001678	-0.055085	
0.376135	-0.092622	-0.009003	-0.058747	
0.287633	-0.081941	-0.003815	-0.080720	
-0.025787	-0.045930	0.001068	0.003815	
-0.226902	-0.037690	0.011749	-0.034638	
-0.074006	-0.054170	0.022125	-0.080415	
0.226597	-0.158542	0.026093	-0.076142	
0.099031	-0.247349	0.016022	-0.041047	
-0.162204	-0.118868	0.014191	0.047761	
-0.364843	0.175632	0.025177	0.206149	
-0.495155	0.278782	0.046540	0.162509	
-0.487526	0.194247	0.031281	0.112764	
-0.066987	0.197299	0.018463	0.104525	
0.478981	0.155489	0.000153	0.051728	
0.158542	0.034638	-0.016937	0.023041	
-0.438392	-0.196994	-0.029144	0.026398	
-0.705119	-0.267185	-0.023041	0.051118	
-0.493019	-0.134127	-0.032197	0.041352	
-0.275120	0.070649	-0.022430	-0.019684	
-0.175632	0.222324	-0.003510	-0.011444	
-0.137178	0.275730	0.001068	-0.011444	
-0.226902	0.185092	0.005951	-0.132601	
-0.214084	-0.051728	0.003815	-0.219578	
0.085908	-0.359350	0.004730	-0.315709	
0.469215	-0.503700	0.008698	-0.178683	
0.633402	-0.323644	0.001068	-0.038606	
0.638895	-0.111544	-0.001373	-0.204318	
0.503090	0.062104	0.040437	-0.162509	
0.166781	0.135958	0.044099	0.169223	
0.011139	0.043183	0.011139	0.422217	
0.036775	0.018158	-0.025482	0.163119	
-0.035249	0.052033	-0.009918	-0.148775	
-0.019989	0.117342	0.019989	-0.137789	
0.045014	0.109407	0.026398	-0.105440	
0.368811	0.048066	0.023041	-0.032197	
0.555276	0.034028	0.005341	-0.128023	
0.204318	0.092622	0.000763	-0.070344	
0.064546	0.142672	0.027313	0.644388	
-0.233006	0.167392	0.030670	0.294042	
-0.370642	0.220188	0.002289	-0.066682	
-0.258640	0.252232	-0.039826	0.015411	
-0.035554	0.157016	-0.016937	0.525368	
0.130159	0.002594	0.054475	1.068894	
0.137484	-0.093537	0.069428	0.925460	
0.231174	-0.050508	0.024261	0.575112	
-0.103304	-0.006256	-0.019073	0.117952	
-0.542764	0.040437	-0.000763	0.052644	
-0.420997	0.038911	-0.006866	-0.096895	
-0.294957	0.033418	0.005035	-0.442664	
-0.192721	0.020294	0.005035	-0.514687	
0.149080	0.110933	0.019073	-0.214084	
0.144197	0.114595	0.045014	-0.491798	
-0.043489	-0.196689	0.070954	-0.617838	
-0.007782	-0.364233	0.090180	-0.254673	
-0.017853	-0.294957	0.094759	0.120699	
-0.106661	-0.190585	0.040132	0.576028	
0.045014	-0.161288	0.008087	0.419471	
0.249180	-0.116426	0.010834	0.092622	
0.147249	-0.020294	-0.005951	-0.028534	
0.239414	0.082551	-0.009613	-0.310826	
0.064240	0.167697	0.035554	-0.314488	
-0.051118	0.078279	0.047151	-0.284886	
-0.087129	0.073396	0.030670	-0.208896	
-0.247044	0.046235	0.043489	-0.009308	
-0.162204	0.018463	0.066377	-0.018158	
-0.026093	0.116732	0.055085	-0.075532	
-0.101168	0.243992	-0.001678	-0.107882	
-0.223850	0.224461	-0.017548	-0.161899	
-0.095675	0.121614	-0.017242	-0.232090	
-0.054475	0.069123	-0.011749	-0.229954	
-0.202487	0.053559	0.007172	-0.237583	
-0.026093	0.005035	-0.001068	-0.285192	
0.078584	-0.076142	-0.019684	-0.229343	
-0.012970	-0.233006	-0.044099	-0.046235	
-0.074311	-0.361181	-0.051728	-0.186923	
-0.067292	-0.306859	-0.046540	-0.241856	
-0.017548	-0.137789	-0.025787	-0.305333	
0.014801	-0.015717	0.023041	-0.196383	
0.065156	0.056306	0.067903	0.032807	
0.120089	0.070649	0.046235	0.227818	
0.144503	0.082246	0.025177	0.107576	
0.253452	0.079194	-0.005951	-0.036775	
0.244907	0.090180	-0.017548	-0.002289	
0.040437	0.090791	-0.005341	0.128023	
-0.045320	0.103609	0.012665	0.222630	
-0.077363	0.064851	0.006561	0.010834	
-0.055390	0.029144	0.024872	-0.146944	
-0.021210	-0.002289	0.018463	-0.121920	
-0.027313	-0.018158	-0.000153	-0.084687	
-0.108492	-0.016022	0.007782	0.017548	
-0.170749	0.008087	-0.001373	-0.201571	
-0.024872	0.069428	-0.002289	-0.403906	
0.109102	0.110323	-0.004120	0.124056	
0.194858	0.097200	0.053254	0.689860	
0.149080	0.106356	0.071870	0.419776	
0.063325	0.121614	0.036164	-0.054170	
-0.005035	-0.015717	-0.012054	0.015106	
-0.051118	-0.080110	-0.023956	0.104830	
-0.007172	-0.190585	-0.027313	0.048676	
0.106661	-0.354162	0.006256	0.385290	
0.145418	-0.387426	0.050813	0.623026	
0.101473	-0.256809	0.059052	0.348974	
0.031281	-0.102083	0.018463	0.061189	
-0.014191	0.009003	-0.018463	0.204623	
-0.010223	0.005951	-0.011749	0.208896	
-0.008087	0.019379	0.006256	0.061799	
-0.029449	0.149691	0.027313	-0.146944	
-0.022125	0.150606	0.028534	-0.414893	
-0.012970	0.074006	0.051728	-0.554971	
-0.015717	0.075227	0.042268	-0.397192	
-0.007477	0.081025	0.036469	-0.181430	
0.007782	0.059968	0.028839	-0.052949	
0.008698	0.048066	0.031587	0.283055	
0.000458	0.059358	0.008392	0.456397	
-0.003815	0.074311	-0.001678	0.147860	
-0.011749	0.058137	-0.005951	0.006561	
-0.014801	0.045320	-0.021515	0.045625	
-0.019989	0.031892	-0.031281	-0.018463	
-0.013275	0.028229	-0.029449	-0.076753	
-0.019379	0.016632	-0.050202	-0.115511	
-0.027924	0.006256	-0.041963	-0.138094	
-0.029449	-0.002899	-0.021210	-0.184176	
-0.025177	-0.001373	0.000458	-0.243992	
-0.021210	-0.007477	0.021210	-0.231480	
-0.023346	-0.009613	0.033418	-0.145723	
-0.021210	-0.014191	0.002594	-0.128939	
-0.023651	-0.023041	-0.016937	-0.094454	
-0.023346	-0.016022	0.000458	-0.035554	
-0.031892	-0.023651	-0.012360	-0.092622	
-0.029755	-0.019379	0.000458	-0.073396	
-0.041352	-0.021210	0.001984	-0.079194	
-0.034028	-0.012360	0.012665	-0.087129	
-0.034028	-0.019379	0.006866	-0.099642	
-0.023346	-0.010834	0.012970	-0.099947	
-0.028839	-0.012054	0.016327	-0.097200	
-0.025787	-0.003204	0.024872	-0.062715	
-0.027008	-0.009003	0.028229	0.015106	
-0.026093	-0.005035	0.010834	-0.062715	
-0.019684	0.000458	0.002899	-0.191501	
-0.023651	-0.001678	0.005951	-0.137789	
-0.028229	0.003204	0.013885	0.014191	
-0.033418	0.004425	0.019989	0.244907	
-0.040132	0.000153	0.018463	0.287938	
-0.047761	-0.001984	0.009003	-0.010529	
-0.038301	0.002899	0.015411	-0.261997	
-0.034333	0.005035	0.009308	-0.417640	
-0.025787	0.014801	0.010834	-0.027924	
-0.027313	0.010834	0.010834	0.631876	
-0.012970	0.019073	0.024567	0.623026	
-0.014801	0.010529	0.026093	0.211947	
-0.001678	0.024567	0.033113	0.050202	
-0.001373	0.019989	0.024872	0.273899	
0.009003	0.023346	0.024872	0.153048	
0.008698	0.020294	0.026703	0.071870	
0.011139	0.023041	0.019989	0.053864	
0.011749	0.023041	0.017853	0.020294	
0.015717	0.026703	0.024261	-0.034944	
0.009003	0.017853	0.022430	-0.131380	
0.009613	0.017242	0.016937	-0.201877	
0.011749	0.011749	0.021210	-0.119478	
0.014801	0.011749	0.036164	0.100863	
0.016327	0.007172	0.035554	0.096590	
0.014801	-0.001984	0.018158	0.005035	
0.020599	0.005951	0.017242	-0.001678	
0.016327	0.003204	0.014191	-0.026703	
0.009613	0.000763	0.010834	-0.024567	
0.001984	-0.002899	0.001068	-0.038301	
0.014496	0.002899	0.005951	-0.035859	
0.012360	0.002594	0.004120	-0.033418	
0.018158	0.007172	0.003204	-0.032807	
0.016632	0.005951	0.000153	-0.036775	
0.016632	0.009003	0.001984	-0.033723	
0.012970	0.008087	0.001068	-0.034333	
0.011749	0.010223	0.003204	-0.029449	
0.011749	0.008087	0.007782	-0.028229	
0.005951	0.000458	0.005341	-0.026398	
0.014801	0.007782	0.008698	-0.019379	
0.014801	0.004425	-0.002289	-0.023346	
0.018463	0.007782	-0.001068	-0.017853	
0.009003	0.002289	-0.006256	-0.024261	
0.008698	0.004120	-0.005341	-0.021820	
-0.001678	0.000153	-0.007477	-0.023346	
0.005646	0.006561	-0.003815	-0.013580	
-0.000763	-0.001373	-0.006866	-0.014496	
-0.003510	0.001678	-0.000763	0.000153	
-0.016937	-0.004120	0.001984	0.006866	
-0.025177	-0.007782	-0.003510	0.012665	
-0.023956	-0.006256	-0.001373	0.016937	
-0.025787	-0.011444	-0.001678	0.022736	
-0.017853	-0.008087	-0.003815	0.029449	
-0.014801	-0.006256	-0.009308	0.028534	
-0.014191	-0.007782	-0.011139	0.027313	
-0.013580	-0.002899	-0.002899	0.028534	
-0.012054	-0.005035	-0.001068	0.026398	
-0.012054	-0.003815	0.004730	0.022125	
-0.013885	-0.000763	0.012665	0.017548	
-0.022430	-0.007782	0.009003	0.009003	
-0.023346	-0.008392	0.010223	0.010223	
-0.026093	-0.012360	0.002289	0.010223	
-0.013885	-0.001678	-0.000153	0.019379	
-0.019073	-0.009613	-0.013580	0.009918	
-0.013275	-0.005646	-0.026093	0.023651	
-0.016022	-0.009308	-0.064240	0.022430	
-0.012360	-0.001984	-0.090180	0.028534	
-0.008087	-0.005951	-0.130159	0.031587	
-0.005646	-0.004425	-0.080720	0.032197	
0.000153	-0.001984	0.038606	0.029449	
0.003815	0.002594	0.065156	0.031587	
0.002899	0.003815	0.059358	0.028534	
-0.001373	0.002594	0.119783	0.024261	
0.003204	0.010223	0.201266	0.029449	
-0.003204	0.002289	0.134127	0.020294	
-0.001068	0.008698	0.113985	0.027008	
-0.009613	0.003815	0.141451	0.018768	
-0.005035	0.005951	0.050508	0.024261	
-0.009613	0.005951	0.032197	0.018768	
-0.007477	0.010529	0.093843	0.017242	
-0.009918	0.001984	0.088655	0.005951	
-0.009918	0.010529	0.019379	0.009308	
-0.017853	0.003204	-0.056916	0.002289	
-0.018158	0.002289	-0.080720	0.006561	
-0.023346	-0.001373	-0.115206	-0.000763	
-0.022430	-0.001373	-0.185397	-0.005646	
-0.017548	-0.002899	-0.266880	-0.009918	
-0.015411	-0.002289	-0.173190	-0.013275	
-0.010834	0.001984	-0.066987	-0.008392	
-0.015717	-0.001373	-0.044709	-0.024567	
-0.008087	0.008698	-0.021515	-0.018463	
-0.011444	0.004425	-0.064546	-0.027313	
0.002594	0.010223	0.035249	-0.030060	
0.005951	0.010223	0.004120	-0.026703	
0.010834	0.015106	0.113985	-0.025177	
0.005035	0.006561	0.197909	-0.037690	
0.005646	0.009003	0.134432	-0.028839	
0.000153	0.007172	0.103304	-0.035554	
-0.001678	0.005035	0.117647	-0.032197	
-0.009613	0.000153	0.054475	-0.040742	
-0.006866	0.003815	0.031587	-0.037385	
-0.009613	0.008698	0.029449	-0.037690	
-0.009003	0.007172	-0.017242	-0.034333	
-0.009003	0.004425	-0.073701	-0.031892	
-0.009613	0.005951	-0.057527	-0.033418	
-0.006866	0.010834	-0.024567	-0.028229	
-0.009308	0.008392	-0.052644	-0.031892	
-0.008087	0.010529	-0.056916	-0.032807	
-0.012360	0.008392	-0.056611	-0.036164	
-0.008392	0.016632	-0.045625	-0.028229	
-0.005951	0.012054	0.004730	-0.034638	
0.006561	0.014801	0.079194	-0.034944	
-0.005951	0.008087	0.052339	-0.037995	
-0.002899	0.009003	0.026093	-0.037385	
-0.007172	0.006561	0.015411	-0.040132	
-0.009308	0.012970	0.013275	-0.035859	
-0.014191	0.004730	-0.000153	-0.036469	
-0.005035	0.012054	-0.000153	-0.034638	
-0.001068	0.006866	-0.000763	-0.034333	
0.005646	0.008392	-0.002289	-0.028229	
0.003815	0.005951	-0.004425	-0.025177	
-0.012054	0.002289	-0.012054	-0.028839	
-0.021515	0.005951	-0.010223	-0.024567	
-0.020294	0.007172	-0.012970	-0.022125	
-0.019073	0.003815	-0.011444	-0.017853	
-0.005951	0.004120	-0.011139	-0.019073	
0.020905	0.007172	-0.005951	-0.011749	
0.025177	0.007172	-0.001678	-0.006866	
0.025787	0.002289	-0.001068	-0.011749	
0.028839	0.001678	0.000458	-0.004120	
0.033723	0.009003	0.006866	0.002899	
0.028229	-0.001373	0.002289	-0.001984	
0.030060	-0.000763	0.007782	0.005035	
0.034028	0.002899	0.009003	0.002899	
0.028839	-0.004120	0.006866	0.002289	
0.016327	-0.007172	0.011749	0.004120	
0.014801	-0.004120	0.015411	-0.000153	
0.021210	0.001678	0.016327	0.000763	
0.016327	0.000458	0.014191	-0.000763	
0.020294	0.001678	0.019989	0.002594	
0.009003	-0.003815	0.012665	-0.009308	
0.017853	0.001678	0.023956	-0.005646	
0.006561	-0.005646	0.025177	-0.007172	
0.006256	0.002289	0.050508	-0.005951	
0.006256	-0.000763	0.041047	-0.007172	
0.000763	-0.004425	0.010529	-0.001984	
-0.003815	-0.003510	-0.007172	-0.009918	
0.002899	0.002594	-0.037995	-0.007172	
-0.008087	-0.003510	-0.056611	-0.013580	
-0.006256	-0.001984	-0.061494	-0.009918	
-0.012360	-0.008087	-0.072480	-0.007172	
-0.008087	-0.000763	-0.006866	0.001678	
-0.012360	-0.009003	0.179904	0.000153	
-0.011444	-0.005035	0.218661	-0.001984	
-0.006866	-0.000763	0.075227	-0.003510	
-0.005646	-0.005646	0.012970	-0.005341	
-0.008087	-0.002289	-0.100863	-0.010223	
-0.005646	-0.001373	-0.038301	-0.011749	
-0.008087	-0.001373	0.088655	-0.008392	
-0.017242	-0.001984	0.068818	-0.012054	
-0.011749	0.002289	0.115816	-0.006866	
-0.018158	-0.001678	0.103304	-0.010529	
-0.019684	-0.000763	0.002289	-0.013580	
-0.016937	-0.004425	0.116121	-0.010223	
-0.011749	-0.001984	0.138094	-0.005951	
-0.015717	-0.007477	0.027008	-0.012970	
-0.012970	-0.000153	0.042878	-0.003510	
-0.013580	-0.005035	0.014801	-0.005035	
-0.019684	-0.003204	-0.011749	0.001068	
-0.023346	-0.003510	-0.030060	-0.000763	
-0.015411	0.002594	-0.088655	0.000763	
-0.017853	0.000458	-0.211337	-0.001373	
-0.013885	0.005035	-0.308385	-0.002899	
-0.011444	0.005951	-0.061494	0.000458	
-0.015717	0.001678	0.346533	0.002594	
-0.005951	0.010529	0.075837	0.014496	
-0.010834	0.000763	-0.029144	0.010529	
-0.006866	0.007782	0.025482	0.011139	
-0.008392	0.004425	0.029144	0.013885	
-0.004425	0.011139	0.028229	0.016632	
-0.006866	0.006561	0.040132	0.000763	
-0.002899	0.013885	0.071259	0.006561	
-0.005341	0.013885	0.057527	0.002594	
-0.008392	0.012970	-0.006256	0.002594	
-0.008392	0.009308	0.009003	-0.001984	
-0.007477	0.015106	0.010223	0.000763	
-0.004425	0.019073	-0.019989	0.004425	
-0.003815	0.020294	-0.109102	0.009308	
-0.001373	0.019073	-0.127718	0.009308	
-0.004120	0.016632	0.017853	0.007172	
-0.006866	0.012970	0.035554	0.010834	
-0.007782	0.006561	-0.078584	0.008698	
-0.007172	0.013275	-0.095064	0.013885	
-0.013275	0.005035	-0.104525	0.007782	
-0.007477	0.013275	0.026398	0.015106	
-0.023346	0.003204	0.183871	-0.001373	
-0.017853	0.005951	0.020599	0.005341	
-0.022125	0.003204	-0.173495	0.008392	
-0.018158	0.005035	-0.247959	0.016022	
-0.023346	-0.001678	0.097200	0.012665	
-0.022430	0.007172	0.191195	0.016022	
-0.026093	0.004425	0.139315	0.000763	
-0.026398	0.007172	0.180209	-0.009613	
-0.019379	0.006561	0.180209	-0.014191	
-0.019684	0.004730	0.105440	-0.007172	
-0.017548	0.007782	-0.017548	-0.005951	
-0.011139	0.003204	-0.236668	-0.008392	
-0.005951	0.007172	-0.403906	-0.000763	
-0.009308	-0.001678	0.132296	-0.000153	
0.001068	0.001068	0.372778	0.006561	
-0.005035	-0.006256	0.105440	0.001068	
0.006561	-0.000763	0.101473	-0.003510	
0.005646	-0.011749	0.091706	-0.015717	
0.005646	-0.011444	0.068818	-0.009918	
0.006561	-0.006256	0.050813	-0.010223	
0.006866	-0.008087	0.059358	-0.012970	
0.006866	-0.010223	-0.023041	-0.009308	
0.010529	-0.005646	-0.146944	0.002289	
0.010529	-0.002899	-0.104830	0.005035	
0.007782	-0.003510	-0.084077	-0.000153	
0.002289	-0.003510	-0.132296	-0.009308	
-0.001068	0.002289	-0.067903	-0.010529	
0.000458	0.005646	-0.019684	-0.001984	
-0.007477	0.005035	0.080110	-0.005646	
-0.003510	0.013275	0.132601	-0.005035	
-0.010223	0.007782	0.068818	-0.009308	
-0.003815	0.014801	-0.019073	-0.004120	
-0.008087	0.013885	-0.094454	-0.014496	
0.002594	0.022430	-0.080720	-0.005035	
-0.006256	0.016327	-0.057527	-0.015411	
0.000458	0.022125	-0.056001	0.003204	
-0.002899	0.014496	-0.045625	-0.001373	
0.002289	0.015717	-0.035859	-0.007782	
-0.003204	0.012360	-0.025482	-0.016632	
-0.001068	0.009308	0.020599	-0.015106	
0.000153	0.000763	0.061494	-0.019989	
0.004120	0.004120	0.030365	-0.020599	
0.001984	0.004425	-0.012970	-0.025482	
0.001678	0.002899	-0.035859	-0.022125	
0.002289	0.004120	-0.044099	-0.017242	
-0.001678	0.000763	0.045625	-0.016632	
0.004730	0.004425	0.039216	-0.011749	
-0.001068	0.002289	-0.052644	-0.013885	
0.001678	0.008392	-0.047456	-0.004425	
-0.010223	-0.001678	-0.090486	-0.026703	
-0.003815	0.004120	-0.046235	-0.018463	
-0.019684	-0.009003	0.037385	-0.025787	
-0.007477	0.002594	0.034944	-0.014496	
-0.008087	-0.006256	0.017242	-0.019379	
-0.006866	-0.005341	0.012665	-0.019989	
-0.009003	-0.006256	0.024261	-0.022736	
-0.009308	-0.006256	0.016327	-0.017853	
-0.016937	-0.012054	-0.033418	-0.022125	
-0.015106	-0.005646	-0.013580	-0.015717	
-0.014191	-0.007172	0.254978	-0.010223	
-0.014801	-0.010834	0.352331	-0.015411	
-0.013580	-0.004120	0.208285	-0.017242	
-0.017853	0.005035	0.048676	-0.022125	
-0.010223	0.010223	0.031587	-0.020599	
-0.019684	0.006256	0.000153	-0.026093	
-0.021210	0.007172	-0.014191	-0.025787	
-0.019684	0.003815	-0.018158	-0.023346	
-0.014191	0.004120	-0.013580	-0.018158	
-0.015106	0.002899	-0.008392	-0.020294	
-0.012054	0.003815	0.005035	-0.015106	
-0.011444	0.005951	-0.001373	-0.016022	
-0.007782	0.004120	-0.027313	-0.019684	
-0.007477	-0.000153	-0.062409	-0.022736	
0.002594	0.008087	-0.133516	-0.023651	
0.004730	0.002899	-0.171054	-0.027313	
0.007782	0.003204	-0.145113	-0.028839	
0.005646	-0.001984	-0.068818	-0.030365	
0.005646	-0.002289	-0.058747	-0.027618	
0.007782	-0.001373	0.300450	-0.033723	
0.008392	-0.005035	0.315709	-0.036164	
0.010834	0.008087	0.019379	-0.032197	
0.006256	0.000153	0.173800	-0.041963	
0.010834	0.004730	0.249790	-0.023346	
0.001068	0.001984	0.149996	-0.017853	
0.009613	0.005646	-0.012054	-0.010223	
0.001678	-0.005646	-0.022430	-0.008392	
0.009613	-0.002899	0.093843	0.005951	
-0.000153	-0.006256	-0.101168	-0.007477	
0.005646	0.013885	-0.089265	-0.006256	
-0.003204	0.006256	-0.120394	-0.004425	
-0.003204	0.010834	-0.156405	0.001984	
-0.005341	0.009003	-0.111544	-0.003510	
-0.007477	0.006256	0.081330	0.000763	
-0.009003	0.005951	0.225681	0.001678	
-0.013580	0.002899	0.119173	-0.009613	
-0.013580	-0.000153	0.057832	-0.004425	
-0.013885	0.003204	-0.157016	0.005035	
-0.009613	0.007172	-0.167392	0.009003	
-0.013275	0.000763	0.070039	0.009003	
-0.004120	0.002899	-0.178988	0.014191	
-0.003204	0.000153	-0.260166	0.015411	
0.004730	0.008392	-0.292821	0.020905	
-0.005035	0.000458	-0.178073	0.018463	
0.000458	0.004425	-0.022430	0.022430	
-0.003815	0.005035	0.151827	0.026398	
0.000458	0.004425	0.350195	0.042573	
-0.006866	-0.001678	0.327611	0.035249	
-0.002289	0.000458	0.132601	0.036469	
-0.004120	-0.006866	-0.106050	0.035859	
-0.010834	-0.000763	-0.287023	0.044709	
-0.009003	-0.001068	-0.322423	0.045320	
-0.005951	0.001678	-0.283360	0.045320	
-0.006256	-0.002289	-0.107271	0.048676	
-0.007172	-0.001373	0.208896	0.054170	
-0.003204	0.000153	0.305333	0.053864	
-0.007477	-0.009308	0.146639	0.052644	
0.000458	0.003815	0.052644	0.056001	
-0.003510	0.000458	0.103914	0.040437	
0.006256	0.004120	0.128633	0.041657	
0.001984	0.000763	0.053254	0.028534	
0.006561	0.006561	0.036775	0.025482	
0.000153	-0.005951	0.017853	0.020905	
0.002594	0.002899	0.016937	0.023346	
-0.003815	-0.000153	0.012970	0.009918	
-0.005951	0.002289	-0.016937	0.007172	
-0.003510	-0.002289	-0.122225	-0.001984	
-0.002289	-0.000763	-0.193637	-0.001984	
-0.004120	0.003204	-0.139620	-0.010529	
-0.006866	-0.001373	0.090180	-0.015717	
-0.003815	0.005035	-0.054170	-0.013580	
-0.008087	0.000153	-0.084382	-0.021820	
-0.005951	0.002289	0.328526	-0.011444	
-0.008392	0.000763	0.405127	-0.016022	
-0.004120	0.007782	0.188754	-0.020599	
-0.009918	0.001068	0.134737	-0.028534	
-0.008087	0.005951	0.009003	-0.032197	
-0.007477	0.004120	-0.019073	-0.036775	
-0.004120	0.007782	0.034028	-0.020294	
-0.011749	-0.001678	0.113985	-0.025482	
-0.008087	0.003204	0.072785	-0.026093	
-0.005646	0.007172	-0.200046	-0.023651	
-0.000153	0.005951	-0.380407	-0.026703	
-0.001678	0.005951	-0.321507	-0.034028	
-0.001068	0.007172	-0.173800	-0.040437	
0.002594	0.008698	-0.190890	-0.023346	
-0.002899	0.004425	-0.062104	-0.023651	
-0.005341	0.002289	-0.026398	-0.022125	
-0.005951	-0.001984	0.250706	-0.018463	
-0.005341	0.005646	0.362707	-0.022736	
0.001068	0.006561	0.157626	-0.033418	
0.003815	0.006561	0.196078	-0.034944	
-0.000763	0.002289	0.107882	-0.039826	
0.000458	0.010834	0.073701	-0.030670	
-0.001373	0.010529	0.088044	-0.034944	
-0.002899	0.010223	0.252842	-0.024567	
-0.006866	0.010529	0.032807	-0.025787	
-0.004425	0.008698	-0.183566	-0.030060	
-0.007782	0.007172	-0.052644	-0.027618	
-0.001678	0.011139	-0.049287	-0.019989	
0.000153	0.008698	0.009003	-0.019379	
-0.002899	0.007172	-0.023956	-0.014496	
-0.008392	0.007782	0.011139	-0.019989	
-0.007477	0.003204	0.092622	-0.017853	
-0.002899	0.005951	0.214999	-0.008087	
-0.003815	0.001678	0.165561	-0.013580	
-0.000763	0.005951	-0.017853	-0.008392	
-0.004120	-0.004120	-0.124666	-0.022430	
0.006256	0.002594	-0.190280	-0.007782	
-0.007477	-0.002899	-0.263523	-0.013580	
-0.005646	-0.005035	-0.385290	-0.008087	
-0.010223	-0.005646	-0.107882	-0.007477	
-0.007782	0.002594	0.079194	-0.009918	
-0.009003	-0.001068	-0.114901	-0.012054	
-0.008392	0.004120	-0.011444	-0.002899	
-0.012054	0.000458	-0.018158	-0.013275	
-0.009918	0.000458	-0.054780	-0.011139	
-0.013580	-0.003204	-0.063020	-0.013275	
-0.007172	-0.001373	-0.066987	-0.005035	
-0.006256	0.001678	-0.094454	-0.005341	
-0.006256	0.002899	-0.092927	-0.011749	
-0.003510	0.004425	0.057221	-0.005951	
-0.007172	-0.000153	0.151522	-0.005035	
-0.008087	-0.001678	0.068818	-0.001068	
-0.005341	-0.001984	0.153963	0.004730	
-0.009003	0.002289	0.354773	0.000153	
-0.012054	-0.003815	0.152132	-0.005951	
-0.005646	0.002594	-0.006256	-0.007172	
-0.005646	0.004425	0.125582	-0.011139	
-0.006866	0.006561	0.155489	-0.007172	
-0.005951	0.003815	0.139925	-0.013580	
0.002899	0.012360	-0.000153	-0.012054	
-0.005035	0.013885	-0.077058	-0.019989	
0.000458	0.013885	-0.097200	-0.019379	
0.000458	0.009308	-0.113985	-0.014496	
0.001068	0.008392	-0.096285	-0.013580	
0.005951	0.009308	-0.178988	-0.005035	
0.002289	0.005035	-0.006866	0.001984	
0.004730	0.010223	0.242771	-0.001373	
0.000153	0.010223	0.187228	-0.009918	
-0.002899	0.006866	-0.005646	-0.013885	
-0.006256	0.005035	0.040132	-0.019379	
-0.001068	0.006561	0.075227	-0.009918	
0.001068	0.004425	0.097506	-0.010223	
0.001984	0.007782	0.074616	-0.011749	
-0.006256	0.001984	0.059052	-0.016022	
0.000153	0.009003	0.014496	-0.012054	
-0.003815	0.001068	-0.059358	-0.014191	
-0.001068	0.008392	-0.100252	-0.001068	
-0.003815	0.006561	-0.112459	-0.005035	
0.001984	0.010834	-0.095064	-0.000763	
0.001068	0.014496	-0.103914	-0.000763	
0.002594	0.012970	-0.052339	-0.000153	
0.002594	0.009308	0.079499	0.004120	
-0.002289	0.009308	0.246433	0.004425	
-0.003815	-0.000763	0.208591	0.002289	
-0.001678	0.000153	0.076753	-0.006866	
0.001984	0.000763	-0.221409	0.002289	
-0.003815	-0.009308	-0.240940	-0.011444	
0.001678	-0.007172	-0.095369	-0.006256	
-0.003204	-0.009308	0.175632	0.001068	
-0.001068	0.002899	0.260777	0.007782	
-0.011139	-0.007782	0.270847	-0.001678	
0.000458	0.000153	0.014801	0.005035	
0.002594	-0.003815	-0.094759	-0.008087	
0.016937	-0.003510	-0.156405	-0.001678	
0.037080	-0.005646	-0.254673	0.005341	
0.016632	-0.002289	-0.154879	0.005035	
-0.020905	-0.003510	0.001984	-0.003510	
-0.016022	0.000153	0.137484	-0.000763	
0.033723	-0.001678	0.295873	-0.001678	
0.020294	0.006256	0.178073	0.001068	
-0.022125	0.005951	0.005341	-0.003815	
-0.027618	0.002289	-0.030365	0.002899	
-0.021820	0.008087	-0.023346	-0.001984	
-0.019073	0.005035	-0.080720	-0.015106	
-0.008392	0.010834	-0.093232	-0.004120	
-0.004120	0.004425	0.051728	-0.007782	
0.012665	0.009308	0.171664	-0.000153	
0.013275	0.006561	0.097811	-0.001984	
0.015717	0.010529	0.039216	-0.001678	
-0.006256	0.001678	-0.078584	-0.009003	
-0.051118	0.001984	-0.252842	0.005951	
-0.067292	-0.001678	-0.291905	0.008392	
-0.059968	0.004120	-0.084992	0.010834	
-0.047761	0.012360	-0.146639	0.008392	
-0.043489	0.008698	-0.107882	0.006561	
-0.034333	0.018158	-0.031587	0.016632	
-0.037080	0.014496	0.047151	0.003204	
-0.024261	0.016937	0.032197	0.002289	
-0.021515	0.016022	-0.248264	-0.009308	
-0.013275	0.014191	-0.262608	-0.004425	
-0.009613	0.007172	-0.136263	-0.009308	
0.005951	0.008698	-0.014191	-0.005341	
-0.007782	-0.012970	0.263218	-0.012054	
0.001068	-0.014801	0.408484	-0.001984	
0.048982	-0.022125	0.290990	-0.009613	
0.065156	-0.019379	0.225071	-0.010529	
0.038301	-0.023651	0.121004	-0.022430	
0.017853	-0.008392	0.146334	-0.012360	
-0.013885	-0.003510	0.148775	-0.011139	
-0.040437	-0.005035	0.133821	-0.013885	
-0.053559	-0.001678	0.110323	-0.009613	
-0.044404	0.000153	-0.012970	-0.011749	
-0.040132	0.002289	-0.187228	-0.010529	
-0.039826	-0.005035	-0.244297	-0.008392	
-0.037690	-0.005341	-0.228428	-0.005341	
-0.047151	-0.005035	-0.202182	-0.007172	
-0.068513	0.000153	0.125277	-0.009003	
-0.086518	-0.003510	0.303807	-0.009918	
-0.063935	0.008392	-0.039826	-0.013275	
-0.027618	-0.001984	-0.179294	-0.027313	
0.025787	0.007172	-0.095980	-0.018463	
0.066072	0.008087	-0.002899	-0.020599	
0.101168	0.009003	0.101473	-0.005646	
0.062104	0.003815	0.246433	-0.002289	
0.041352	0.010223	0.231480	-0.015717	
0.023651	0.002289	-0.149691	-0.021515	
0.016327	-0.000153	-0.215304	-0.009918	
0.009003	0.003204	0.037080	-0.003510	
0.003204	0.002289	0.309911	0.003815	
-0.008087	0.000153	0.007172	0.009308	
-0.005951	0.000763	0.093537	0.008087	
0.009003	-0.002289	0.330663	0.000153	
0.013885	-0.000763	0.093232	-0.011139	
0.030975	0.004425	0.287938	-0.007172	
0.038301	-0.002899	0.591592	-0.014496	
0.032807	-0.004120	0.404516	-0.016632	
0.027924	-0.008087	0.102999	-0.011139	
0.013275	0.000763	-0.466163	0.009918	
0.001984	-0.001373	-0.722820	0.022125	
0.009003	0.001984	-0.966659	0.041047	
0.015717	0.002594	-0.743572	0.028839	
0.030060	0.004120	-0.364843	0.020905	
0.036469	0.006256	-0.454261	0.005035	
0.013275	0.011139	-0.303502	0.001984	
-0.033723	0.010223	0.041352	0.004120	
-0.055085	0.014496	0.022736	0.008392	
-0.035249	0.014496	0.141451	0.009308	
0.000458	0.010529	0.469826	0.008087	
0.014496	0.013275	0.433204	0.012665	
-0.008087	0.014191	0.427405	0.008698	
-0.030365	0.016937	0.483559	0.011444	
-0.045014	0.004425	0.011749	0.008392	
-0.041352	0.005951	-0.276035	0.017242	
-0.023346	0.009003	-0.186923	0.022430	
-0.004425	0.010529	-0.424354	0.025482	
-0.016022	0.002899	-0.213778	0.024261	
-0.009308	0.008698	0.270542	0.027313	
-0.027008	0.000763	0.247044	0.008698	
-0.025787	0.005035	0.038606	0.012054	
-0.033723	0.008087	-0.094149	0.003204	
-0.037385	0.013275	0.378576	-0.004120	
-0.030365	0.011749	0.384375	-0.010223	
-0.021820	0.013885	0.232700	-0.012054	
-0.017853	0.011749	0.130465	-0.009918	
-0.020905	0.001984	0.149385	-0.012054	
-0.013885	0.000763	-0.074616	-0.012054	
-0.023346	-0.011139	-0.077973	-0.024567	
-0.008087	0.000458	0.141146	-0.017853	
0.001678	0.001984	0.228428	-0.030060	
0.010529	0.010834	-0.170138	-0.030670	
0.007782	0.010834	-0.051728	-0.034944	
0.012665	0.009003	0.251316	-0.027924	
0.004730	0.000153	0.058747	-0.022736	
0.004120	0.014496	0.045320	-0.003204	
-0.002289	0.008392	0.042268	-0.001984	
-0.006866	0.006256	-0.019684	-0.000763	
-0.009613	0.008698	-0.479897	0.006256	
-0.017548	0.006256	-0.760052	0.013885	
-0.023956	0.005035	-0.534524	0.019379	
-0.024872	-0.001984	-0.193637	0.023651	
-0.024872	-0.017242	-0.215304	0.034333	
-0.025177	-0.014191	-0.037690	0.032807	
-0.027618	-0.012054	0.327916	0.026703	
-0.018158	-0.004120	0.353552	0.020294	
-0.001678	-0.000153	0.036164	0.019379	
-0.005035	-0.019684	0.157931	0.013275	
-0.009308	-0.021515	0.373083	0.006256	
-0.008392	-0.025787	0.715800	-0.004120	
-0.006866	-0.009918	0.148775	-0.003204	
-0.021210	-0.003204	-0.460364	-0.014496	
-0.011749	-0.012054	-0.512550	-0.007477	
0.002899	-0.012970	-0.481117	-0.029755	
0.033723	0.007782	0.156404	-0.030365	
0.104219	0.021820	0.502174	-0.051118	
0.132906	0.048371	0.336461	-0.071259	
0.091401	0.059052	0.228733	-0.079194	
0.034944	0.050508	0.037385	-0.082551	
-0.019684	0.028839	-0.001678	-0.064546	
-0.024872	0.010223	-0.064240	-0.052339	
-0.023651	-0.000763	-0.017853	-0.044404	
-0.064240	-0.038606	-0.011444	-0.056306	
-0.071259	-0.037080	0.034944	-0.043489	
-0.077973	-0.003510	0.052339	-0.034638	
-0.045930	0.022430	-0.129244	-0.020294	
0.000458	0.017853	-0.258640	-0.015106	
0.059358	-0.002899	-0.196994	0.001068	
0.095980	-0.037690	0.051423	0.000458	
0.098726	-0.042573	0.192416	-0.004120	
0.055085	-0.045320	-0.036775	-0.023346	
-0.004425	-0.040132	-0.103914	-0.025787	
-0.035859	-0.029144	-0.172885	-0.011139	
-0.059052	0.004425	-0.356909	-0.008392	
-0.074006	0.041047	0.146639	-0.014496	
-0.069734	0.055390	0.219578	-0.028839	
-0.065766	0.036164	-0.050813	-0.029755	
-0.077058	0.000153	0.004425	-0.030060	
-0.077973	-0.000763	0.430457	-0.034333	
-0.051423	0.019073	0.360571	-0.025482	
0.011749	0.012054	0.284276	-0.024567	
0.116121	0.002289	0.008698	-0.038606	
0.276340	0.023956	-0.363317	-0.034944	
0.283971	0.065461	-0.172885	-0.052644	
0.106050	0.077668	-0.113070	-0.064546	
-0.086213	0.050813	0.024261	-0.041047	
-0.154573	0.023956	0.081025	0.005035	
-0.088349	-0.014191	0.151827	-0.000153	
-0.061494	-0.049592	0.169833	0.008087	
-0.126497	-0.058137	0.016937	0.016937	
-0.193942	-0.053864	-0.177768	-0.009918	
-0.177463	-0.067597	-0.107882	-0.015411	
-0.105440	-0.033113	0.041352	-0.001678	
0.003815	0.048982	-0.015411	-0.029449	
0.089875	0.140535	-0.057527	-0.054170	
0.116426	0.132601	-0.126802	-0.051728	
0.070344	0.037385	-0.010223	-0.030060	
-0.045625	-0.023041	0.151827	0.025177	
-0.052339	-0.034333	0.027924	0.074616	
0.035249	-0.007782	0.074922	0.139620	
0.063935	-0.001984	0.038606	0.097811	
0.062715	0.011139	0.032197	0.066377	
0.039216	0.005646	0.034638	0.059663	
0.045014	-0.007782	0.034333	-0.056001	
0.051728	-0.020905	0.024567	-0.089265	
0.083467	0.007172	0.046845	-0.000153	
0.095980	0.001068	0.064546	0.044709	
0.120089	-0.040132	0.073091	0.045625	
0.196689	-0.051728	0.069123	0.025177	
0.272678	-0.047151	0.034333	-0.009918	
0.245518	-0.033723	0.002594	-0.071259	
0.178988	-0.031281	-0.004425	-0.131380	
0.051118	0.005035	-0.013275	-0.110933	
-0.120394	0.016632	-0.031892	-0.124056	
-0.150606	0.052339	-0.027618	-0.159762	
-0.023041	0.097506	-0.017548	-0.156405	
0.122835	0.138399	0.010223	-0.066377	
0.132601	0.128633	0.014191	-0.060884	
-0.053254	0.062104	0.020599	-0.127718	
-0.232090	-0.025787	0.010529	-0.214084	
-0.281529	-0.093232	-0.005951	-0.184482	
-0.043794	-0.138399	-0.022125	0.134432	
0.245213	-0.104219	-0.039826	0.347754	
0.066072	-0.035554	-0.046235	0.182956	
-0.450294	-0.025787	-0.058137	0.063935	
-0.907760	-0.081635	-0.055696	0.053254	
-0.864424	-0.009308	-0.047456	0.052949	
-0.645304	0.051118	-0.044099	0.051118	
-0.453956	0.143282	-0.064851	0.005035	
-0.157626	0.141146	-0.063630	0.066987	
0.062409	0.091706	-0.064851	0.253757	
0.142977	0.094759	-0.043183	0.227207	
0.172580	0.053559	-0.032197	0.048676	
0.346838	0.033418	-0.010223	-0.015411	
0.464332	-0.027924	0.003204	0.033723	
0.460364	-0.086823	0.022125	0.067597	
0.400854	-0.132601	0.032502	0.068513	
0.263218	-0.201266	0.024872	0.028534	
0.082551	-0.275730	0.012360	-0.022736	
-0.034333	-0.284581	-0.001373	-0.056001	
0.014191	-0.164035	-0.007172	-0.033723	
0.063020	-0.074616	-0.003204	-0.074922	
0.083161	0.012360	0.010529	-0.108187	
0.157321	0.099337	0.019073	-0.114901	
-0.021820	0.032502	0.027924	-0.088960	
-0.190890	-0.091706	0.012054	-0.048982	
-0.003510	-0.043794	0.011749	-0.023346	
0.164340	-0.020905	0.000153	-0.060578	
0.109102	0.028229	-0.003815	-0.119478	
0.016632	0.087129	-0.003204	-0.030365	
-0.073091	0.125277	0.009918	0.215610	
-0.042268	0.079194	0.012970	0.284276	
0.189059	0.017242	0.009918	0.313268	
-0.116121	0.035859	0.012054	0.052644	
-0.370031	0.208896	0.034333	-0.007172	
-0.328221	0.308690	0.039521	0.061494	
-0.225376	0.275730	0.055696	0.055085	
-0.114290	0.247044	0.069123	0.142977	
-0.001984	0.211032	0.056306	-0.065156	
0.083161	0.124361	0.049287	-0.225681	
0.251011	-0.019684	0.038911	-0.233311	
0.180820	-0.091706	0.030365	-0.182651	
-0.046235	-0.172580	0.011139	-0.101778	
0.003204	-0.224766	0.022125	0.251011	
0.091096	-0.203097	0.027313	0.471962	
0.164645	-0.134432	0.046235	0.670634	
0.216525	-0.106661	0.028534	0.317235	
0.225071	-0.059052	0.012970	0.060884	
0.190890	-0.033113	0.005035	0.205234	
0.128633	0.042878	0.009308	0.155184	
-0.021210	0.102999	0.019073	-0.189364	
-0.095369	0.142977	0.040132	-0.168002	
-0.053864	0.183871	0.041657	-0.129854	
0.042573	0.104219	0.032197	-0.245213	
0.153048	0.056306	0.042878	-0.221409	
-0.015106	0.010223	0.035554	-0.117647	
-0.087129	-0.094454	0.026093	-0.199435	
-0.051118	-0.194247	0.024872	-0.131380	
0.056001	-0.239109	0.016327	-0.103914	
0.122835	-0.220798	0.006866	-0.152742	
-0.115206	-0.166781	0.004120	-0.265354	
-0.387426	-0.059663	-0.005341	-0.293431	
-0.295873	0.173800	0.016022	-0.171054	
-0.245823	0.333104	0.026703	-0.148470	
-0.251011	0.316625	0.014191	-0.188144	
-0.224155	0.201877	-0.000153	-0.168307	
-0.090180	0.102999	0.010529	-0.277561	
-0.075227	0.005035	0.005035	-0.298619	
-0.082246	-0.116426	0.005341	-0.186618	
-0.133516	-0.163119	0.016022	-0.212558	
-0.160068	-0.080110	0.018158	-0.521095	
-0.178683	-0.027313	0.006256	-0.129549	
-0.189364	-0.070649	-0.001373	0.308385	
-0.094149	-0.090180	-0.004120	0.222935	
0.035249	-0.030060	0.006256	0.271458	
0.193332	0.042878	0.027008	0.284276	
0.258335	0.085298	0.011749	0.156711	
0.216525	0.148470	0.010529	0.163730	
0.102694	0.153963	0.001068	0.256809	
0.045320	0.063630	-0.001678	0.249485	
-0.005035	0.011139	-0.003204	0.151217	
-0.053254	0.039216	0.002594	0.096285	
-0.067292	0.059968	-0.001373	0.061189	
-0.065156	0.081635	0.012970	0.020905	
-0.119173	0.078584	0.019073	0.029144	
-0.201266	0.095369	0.014191	0.061494	
-0.167392	0.045014	0.022736	0.008698	
-0.001678	-0.066072	0.021515	0.008698	
0.149080	-0.111849	0.021515	0.069428	
0.190280	-0.216525	0.018158	0.063325	
0.175021	-0.317845	0.008392	0.074616	
0.138704	-0.316625	-0.005951	0.023041	
0.101168	-0.252842	-0.001678	-0.015717	
0.110628	-0.082856	-0.004120	-0.017242	
0.096895	0.040742	0.005035	-0.175021	
0.048371	0.056611	0.012054	-0.164950	
0.052339	0.095369	0.014496	-0.108187	
0.066682	0.079194	0.010223	-0.089570	
0.100557	0.046235	0.034944	-0.088960	
0.087129	0.040437	0.026093	-0.237278	
0.058137	0.028229	0.020599	-0.117342	
0.042268	0.018768	0.028534	-0.009308	
0.030365	0.025787	0.044404	0.058137	
0.019684	0.024872	0.022736	0.163424	
0.018768	0.030670	-0.004425	0.068513	
0.016327	0.027008	-0.011139	-0.025482	
0.012970	0.034638	-0.001068	0.048066	
0.010223	0.032197	-0.005951	0.226292	
0.011749	0.026093	-0.019379	0.199130	
0.014191	0.033418	-0.021820	-0.125582	
0.004730	0.018158	-0.019684	-0.058747	
0.007172	0.022125	-0.008087	0.277256	
0.001678	0.015106	-0.019989	0.104525	
0.009613	0.021210	-0.013885	-0.022736	
0.000763	0.007782	-0.023346	-0.052644	
-0.007477	0.016327	-0.019989	0.002899	
-0.023041	0.008698	-0.019684	0.032502	
-0.023651	0.011749	-0.009613	-0.009918	
-0.034944	-0.000153	-0.011749	-0.115206	
-0.034333	0.004120	0.004120	-0.121614	
-0.040132	-0.004120	0.017242	-0.065461	
-0.044099	-0.004425	0.021515	-0.089570	
-0.045625	-0.001984	0.013885	-0.117647	
-0.051118	-0.009308	0.010529	-0.134432	
-0.047456	-0.006256	0.007782	-0.189670	
-0.050202	-0.003510	0.007172	-0.223850	
-0.046235	-0.001984	0.015411	-0.197299	
-0.043794	-0.005341	0.012970	-0.129854	
-0.033418	-0.002289	0.020905	0.038606	
-0.033723	-0.009918	0.008087	0.146334	
-0.033113	-0.008087	-0.001068	0.073091	
-0.025482	-0.003204	-0.004425	0.059358	
-0.017242	0.010223	-0.000763	0.022736	
-0.026093	0.000153	-0.005341	-0.016632	
-0.019684	0.013275	0.006866	-0.046540	
-0.031281	0.008392	-0.001678	-0.094759	
-0.027618	0.004730	0.000458	-0.110933	
-0.027618	0.002899	-0.001678	0.002289	
-0.015717	0.010834	-0.005646	0.023651	
-0.010834	0.008087	0.001068	0.046540	
-0.009003	0.001984	0.008698	0.037385	
-0.011444	0.004730	0.026093	0.033723	
-0.005951	0.005951	0.034333	0.034333	
0.000458	0.007782	0.034944	0.034638	
0.002899	0.005035	0.017853	0.028229	
0.005035	0.009308	0.014191	0.029755	
-0.001068	0.000763	0.016632	0.023346	
0.008087	0.007172	0.030060	0.052644	
-0.000153	0.004425	0.026093	0.009918	
0.004120	0.002594	0.022736	-0.062104	
-0.003815	-0.002899	0.003204	-0.145418	
-0.001984	0.006561	0.010223	-0.078889	
-0.010834	0.001678	0.009003	0.088655	
-0.013885	-0.002899	0.018463	0.078279	
-0.015717	-0.009308	0.016022	0.041352	
-0.006256	-0.013885	0.014191	0.016937	
-0.001068	-0.011139	0.018463	0.028839	
-0.003204	-0.008392	0.015411	0.034333	
-0.005035	-0.001984	0.024567	0.045930	
-0.007782	-0.008392	0.028839	0.026703	
-0.007782	-0.004425	0.035554	0.020599	
-0.010223	-0.002899	0.023346	0.005951	
-0.004425	0.005035	0.018463	0.009308	
-0.008087	0.002899	0.018768	0.019989	
-0.003204	0.004425	0.016937	0.029144	
-0.000153	0.001984	-0.023041	0.025177	
0.000763	0.003815	-0.059663	0.022430	
0.000458	0.002289	-0.063630	0.008087	
0.006256	0.005035	0.011139	0.009003	
0.004730	-0.000763	0.109102	0.008087	
0.016022	0.009308	0.059358	0.014191	
0.013275	0.009308	0.060273	0.002899	
0.016327	0.009308	-0.018463	0.000763	
0.012054	0.005646	-0.109102	0.000458	
0.009613	0.009003	-0.143892	0.000458	
0.016632	0.016632	-0.175937	0.005341	
0.005951	0.009003	-0.012360	-0.003510	
0.002594	0.017242	0.287328	0.001678	
-0.005646	0.005951	0.237583	-0.006256	
-0.008392	0.012054	0.145723	-0.001984	
-0.007782	0.014191	0.104219	-0.013580	
-0.004425	0.012970	0.116121	-0.016022	
-0.003815	0.004730	0.041047	-0.017242	
0.006866	0.009003	-0.016022	-0.005341	
-0.002899	0.003815	-0.037690	-0.009003	
-0.008392	-0.002899	-0.045930	-0.012970	
-0.013580	-0.003204	-0.034638	-0.011444	
-0.006866	0.008698	-0.029144	-0.007477	
-0.010834	0.002899	-0.038606	-0.012054	
-0.002289	0.009003	-0.066072	-0.005646	
-0.001678	0.007172	-0.108797	-0.019989	
0.002289	0.006561	-0.218356	-0.029449	
0.001984	0.010529	-0.352636	-0.017853	
-0.005341	0.008392	-0.323339	-0.017548	
-0.002899	0.006561	0.136263	-0.012054	
-0.004425	0.001068	0.475929	-0.013885	
-0.001068	0.006561	0.182345	-0.009308	
-0.001984	0.004120	-0.062715	-0.020599	
0.003204	0.008698	0.011749	-0.031587	
-0.006256	0.002289	-0.072480	-0.040132	
-0.006866	0.006256	-0.056916	-0.036164	
-0.009308	-0.001373	0.079499	-0.033723	
-0.009308	0.001678	0.262608	-0.023956	
-0.016022	-0.003204	0.385290	-0.026703	
-0.005951	-0.001373	0.121920	-0.025482	
-0.004425	-0.000763	-0.103304	-0.026093	
0.000763	0.000458	-0.131380	-0.021515	
0.007782	0.004425	-0.099947	-0.009308	
0.008087	0.005951	0.165561	0.000458	
0.005951	0.003815	0.373083	0.002289	
-0.003815	0.003815	0.024261	0.000153	
-0.005341	0.000763	-0.023346	0.002594	
-0.010834	-0.005646	-0.040437	0.002899	
-0.010223	-0.000763	-0.066987	-0.004425	
-0.009918	-0.000763	-0.004120	0.000458	
-0.005951	0.002899	0.070649	-0.000763	
-0.012970	0.001984	0.131685	-0.010223	
-0.011444	-0.001068	-0.016022	-0.012970	
-0.013275	-0.001373	-0.129244	-0.014191	
-0.009613	0.000763	-0.228733	-0.010529	
-0.017548	-0.009308	-0.347143	-0.010223	
-0.013275	-0.001984	-0.214389	0.004425	
-0.012054	-0.001984	-0.200046	-0.001678	
-0.011139	0.002289	-0.555886	-0.002899	
-0.011749	0.002289	-0.136263	-0.003204	
-0.008392	0.005646	0.776531	0.008087	
-0.006866	0.008698	0.316319	0.005951	
-0.007782	0.003815	0.115206	-0.001373	
-0.005035	0.007172	0.171664	0.010223	
-0.002899	0.009918	0.018768	0.012970	
-0.001373	0.014496	0.061494	0.024567	
-0.012054	0.008087	0.126497	0.021210	
-0.012360	0.011139	-0.089265	0.028229	
-0.021820	-0.001373	-0.069123	0.018463	
-0.012360	0.005646	-0.001068	0.021210	
-0.012360	0.001068	-0.041657	0.013885	
-0.012360	0.004425	-0.052033	0.020294	
-0.023651	-0.006256	-0.062409	0.015411	
-0.019989	-0.001984	-0.082551	0.020294	
-0.017548	0.002289	-0.143587	0.015106	
-0.011444	0.003204	-0.240025	0.012360	
-0.009918	0.002594	0.014496	0.010223	
-0.010834	0.007172	0.093843	0.009308	
-0.009918	0.005951	-0.066987	0.009918	
-0.013275	0.005035	0.022430	0.008698	
-0.006256	0.011749	0.027924	0.009308	
-0.010223	0.005951	0.197909	0.002899	
-0.002289	0.008392	0.327611	0.004425	
-0.000763	0.002594	0.058747	-0.001984	
-0.001068	0.008392	-0.064546	-0.000763	
-0.003204	0.002899	-0.031587	-0.009613	
0.002899	0.005646	-0.023956	-0.007172	
-0.000153	0.002594	-0.036775	-0.021515	
0.002594	0.005951	-0.046540	-0.019989	
0.000153	0.000153	-0.036469	-0.020599	
0.007782	0.003815	-0.031587	-0.021515	
0.008087	-0.000153	-0.036469	-0.025787	
0.008392	0.003815	-0.038301	-0.020599	
0.003815	0.000763	-0.037995	-0.023651	
0.006866	0.001984	-0.047761	-0.025787	
0.006866	0.005951	-0.046540	-0.017853	
0.003815	0.007172	-0.043489	-0.015106	
0.008698	0.010223	-0.040742	-0.016327	
0.012054	0.005951	-0.044404	-0.015717	
0.011139	0.012665	-0.034333	-0.007477	
0.000763	0.004120	-0.034333	-0.013885	
0.006561	0.005951	-0.018158	-0.004425	
-0.005951	0.000153	-0.017548	-0.006256	
-0.005341	0.001984	-0.011139	-0.011444	
-0.016327	-0.008087	-0.007477	-0.019684	
-0.005646	0.004120	-0.000153	-0.014191	
-0.005951	0.004425	-0.001678	-0.021210	
-0.002289	0.000458	0.006256	-0.017242	
0.000458	0.001068	0.008698	-0.021820	
0.005035	0.006561	0.011139	-0.017853	
-0.000153	0.006866	0.021210	-0.017853	
0.000763	0.004120	0.021210	-0.017853	
0.010529	0.013885	0.025482	-0.009613	
0.005951	0.011139	0.023041	-0.014191	
0.010834	0.009308	0.022430	-0.012054	
0.002289	0.000153	0.010529	-0.016632	
0.009613	0.005951	0.028229	-0.011444	
0.001678	-0.003815	0.059052	-0.012360	
-0.001373	-0.000763	0.083161	-0.008087	
-0.006256	-0.002899	0.080720	-0.013885	
-0.001984	-0.000763	0.065156	-0.005646	
-0.005035	-0.002289	0.034333	-0.007172	
-0.000763	-0.000153	0.006866	-0.000763	
-0.000153	-0.003510	-0.040437	-0.001984	
-0.005951	-0.005646	-0.095064	0.005951	
-0.010223	-0.006256	-0.116732	0.005951	
-0.005951	-0.001984	-0.110628	0.003815	
-0.005646	-0.008087	-0.017242	0.003204	
-0.005951	-0.009613	0.176852	0.005035	
0.002594	-0.002899	0.158237	0.000458	
-0.002289	-0.011444	0.084687	-0.008392	
0.002289	-0.003815	0.077973	-0.000153	
-0.000153	-0.001068	0.104830	-0.005035	
0.001984	0.004425	0.086213	0.002594	
-0.009613	-0.006866	0.074006	-0.003510	
-0.003510	0.004120	0.113985	0.005035	
-0.009003	-0.000153	0.040132	-0.002289	
-0.003204	-0.000153	-0.041352	0.003815	
-0.005341	-0.001984	-0.146944	0.002289	
-0.001678	0.008087	-0.227512	0.004120	
0.001678	0.002289	-0.095980	0.004425	
0.000763	0.010223	0.102388	0.008087	
-0.003204	0.007172	0.354467	0.004120	
-0.005341	0.004120	-0.005951	0.001678	
-0.002289	0.009308	0.068818	0.003204	
-0.005951	0.004425	0.277561	-0.007172	
-0.007782	0.002289	0.040132	-0.005035	
-0.011749	-0.001984	0.054475	-0.014496	
-0.010834	0.005646	0.093537	-0.008392	
-0.015411	0.005951	0.044404	-0.009308	
-0.014801	0.004120	0.048676	-0.003510	
-0.016327	0.000763	0.032502	-0.009308	
-0.007477	0.007782	0.007172	-0.007782	
-0.009003	0.000763	-0.055696	-0.011444	
-0.001984	0.009003	-0.106966	-0.007172	
-0.005341	0.008392	-0.120394	-0.011749	
-0.003815	0.008698	-0.100863	-0.010223	
-0.011749	0.010223	-0.076447	-0.007477	
-0.011749	0.009003	-0.086518	-0.007172	
-0.006256	0.006866	0.001984	-0.002289	
-0.010223	0.008698	0.129854	-0.001984	
-0.003815	0.016022	0.069428	0.001984	
-0.009613	0.011749	-0.058442	-0.004120	
-0.009613	0.012665	0.046540	0.000153	
-0.018158	0.010223	0.232700	-0.003204	
-0.009918	0.016632	0.001068	-0.000153	
-0.015411	0.008392	-0.110933	-0.007172	
-0.011139	0.008698	-0.108187	-0.002899	
-0.016022	0.004425	-0.034638	-0.009918	
-0.011749	0.005035	0.059052	-0.008087	
-0.012054	0.002289	0.057221	-0.017242	
-0.006256	0.005646	0.007782	-0.012054	
-0.013885	-0.003204	-0.020294	-0.013580	
-0.013275	-0.005035	-0.095980	-0.008087	
-0.009308	-0.001984	-0.182040	0.001068	
-0.012970	0.002289	-0.189059	-0.007172	
-0.011139	-0.002289	0.185702	-0.013885	
-0.009308	0.001678	0.383764	-0.014191	
-0.008087	0.007172	0.182956	-0.017548	
-0.011444	0.004120	0.034333	-0.021210	
-0.010223	0.004425	-0.079194	-0.016632	
-0.009003	0.004120	-0.221104	-0.021210	
-0.006866	0.004730	-0.312963	-0.011444	
-0.011139	0.000763	-0.170138	-0.014496	
-0.001373	0.008698	0.036775	-0.003510	
-0.006866	0.000458	-0.003204	-0.011749	
0.000763	0.004425	0.369726	-0.009308	
-0.001678	0.003815	0.280003	-0.012360	
0.000458	0.006561	-0.014191	-0.014191	
-0.005951	-0.000153	0.131990	-0.014191	
-0.005035	0.004425	0.332189	-0.003204	
-0.003510	0.009308	0.022736	-0.006256	
-0.000763	0.001678	-0.142672	-0.009918	
-0.000763	0.008698	-0.296788	-0.001068	
-0.006256	0.006561	-0.267185	-0.007782	
-0.000153	0.006561	-0.078584	-0.005951	
-0.004120	0.001984	-0.088044	-0.010223	
0.001678	0.006561	0.126192	-0.005646	
0.004730	0.003815	0.270847	-0.011749	
0.005035	0.001984	0.168307	-0.011139	
0.002594	-0.003815	0.209201	-0.010223	
0.009613	0.003815	0.133516	-0.007477	
0.004120	-0.009308	0.050202	-0.011444	
0.012054	0.004120	-0.006866	0.001068	
0.009613	0.004425	-0.086518	-0.011139	
0.010223	0.006561	-0.116732	-0.009308	
0.004425	0.002289	-0.146944	-0.011139	
0.007782	0.004425	-0.110323	-0.008087	
0.000458	-0.003510	-0.113070	-0.011139	
0.002899	0.002594	-0.029755	-0.008392	
-0.001984	-0.001068	0.164035	-0.014191	
0.002899	-0.004120	-0.005035	-0.016022	
0.005951	-0.001373	-0.110323	-0.019684	
0.003815	-0.003815	-0.079194	-0.017548	
0.006866	0.000153	-0.124361	-0.015717	
0.004730	-0.005646	-0.130465	-0.019989	
0.012970	0.012970	-0.098726	-0.007782	
0.002594	0.007172	0.003815	-0.022125	
0.004120	0.013885	0.094149	-0.015717	
0.000763	0.008087	0.038606	-0.021515	
0.004730	0.016327	0.021210	-0.016022	
-0.013580	0.003815	-0.078584	-0.022125	
-0.015106	0.009003	0.107576	-0.012054	
-0.022430	0.001678	0.329137	-0.015717	
-0.024261	0.003815	0.101473	-0.010529	
-0.027924	-0.001984	0.061494	-0.007782	
-0.027618	-0.002899	-0.000763	-0.004425	
-0.027618	-0.003815	-0.045625	-0.004120	
-0.022430	-0.001373	0.015411	-0.000153	
-0.024872	-0.004120	0.095369	0.000153	
-0.024261	-0.002899	0.160373	-0.000763	
-0.021210	-0.001068	0.090791	0.004120	
-0.026398	-0.005341	-0.039826	-0.001678	
-0.011139	0.007172	-0.140535	0.011139	
-0.020294	-0.004120	-0.343786	0.007172	
-0.011444	0.011749	-0.219273	0.020905	
-0.010834	0.009308	0.042573	0.017242	
-0.008392	0.005951	-0.107271	0.016022	
-0.007477	0.002594	0.125277	0.015106	
0.001678	0.006866	0.289159	0.020599	
-0.002899	0.002594	0.079804	0.016327	
0.002289	0.001984	0.063630	0.018463	
0.004730	0.002594	0.022736	0.010834	
0.008392	0.004730	-0.141146	0.005035	
0.011749	0.005035	-0.251621	0.007172	
0.009003	0.004730	-0.267185	0.003815	
0.010834	0.007172	0.182345	0.008392	
0.005035	0.003204	0.507973	0.006561	
0.007782	0.010834	0.466163	0.002899	
0.003204	0.003204	0.301976	-0.013275	
0.007172	0.005951	0.038606	-0.012970	
-0.000153	-0.002289	-0.086823	-0.021210	
0.009613	0.014801	-0.036469	-0.010223	
-0.003204	0.004120	-0.300756	-0.019684	
0.000763	0.006866	-0.191501	-0.015717	
-0.004425	0.002899	-0.021515	-0.023651	
-0.001068	0.004120	-0.085908	-0.022125	
-0.009308	-0.001984	-0.104219	-0.026398	
-0.008087	0.006561	-0.011749	-0.017853	
-0.007477	0.003815	-0.044709	-0.018463	
-0.009613	0.005646	0.013275	-0.017242	
-0.010834	0.003204	-0.036775	-0.021210	
-0.007782	-0.000763	-0.076447	-0.023346	
-0.003204	0.003815	0.037385	-0.017548	
-0.006866	-0.003815	0.074006	-0.021820	
-0.008392	0.003815	0.100252	-0.010529	
-0.016022	-0.001984	0.121920	-0.012054	
-0.014801	-0.002289	0.010529	-0.000763	
-0.015411	-0.003815	0.005341	-0.001373	
-0.012360	-0.006256	0.030060	0.002594	
-0.012054	-0.016327	0.025177	0.004120	
0.000153	-0.001984	-0.010223	0.010529	
-0.002289	-0.001373	-0.029449	0.002899	
-0.000153	0.006561	-0.032502	0.012360	
-0.002289	0.009918	-0.110628	0.007172	
0.002899	0.013885	-0.152437	0.012970	
0.003815	0.008698	-0.105440	0.014496	
0.001678	0.007172	-0.054475	0.014191	
-0.001678	0.004425	0.014191	0.014191	
-0.003510	0.004730	0.044099	0.008698	
-0.000153	0.004425	-0.043183	0.014801	
-0.005646	-0.000763	-0.119478	0.007172	
0.000153	-0.000763	0.168918	0.005341	
-0.009003	-0.006866	0.360571	0.002899	
-0.005646	0.001984	0.229038	0.015411	
-0.006866	0.000763	0.016937	-0.000763	
-0.003204	0.003204	-0.193637	-0.004120	
-0.009308	0.001984	-0.251011	-0.009918	
-0.004425	0.004730	-0.202487	-0.000763	
-0.012970	-0.001984	0.305333	-0.000153	
-0.002289	0.005646	0.504311	0.011139	
-0.007477	0.007782	0.043183	-0.005951	
-0.005646	0.007782	-0.196994	-0.017853	
-0.005646	0.000153	-0.024261	-0.012054	
-0.007782	0.009918	-0.068513	-0.003510	
-0.008087	0.006561	-0.062715	-0.012970	
-0.008392	0.005035	0.099031	-0.007172	
-0.012054	0.007782	0.041657	-0.009308	
-0.011139	0.004425	0.035554	-0.017853	
-0.004425	0.008698	0.204318	-0.013580	
-0.010834	0.002899	0.074616	-0.019073	
-0.008087	0.002289	-0.012360	-0.020294	
-0.008392	0.000458	0.125582	-0.019073	
-0.001068	0.004730	0.078889	-0.009308	
-0.014191	-0.002289	0.040132	-0.019379	
-0.009613	0.000153	0.004120	-0.018463	
-0.012054	-0.003815	-0.084687	-0.017242	
-0.006256	0.004120	-0.040437	-0.015106	
-0.005951	0.002289	-0.043794	-0.016022	
-0.009613	-0.002899	-0.124056	-0.012054	
-0.006256	0.001678	-0.249485	-0.007172	
-0.005035	0.000153	-0.313573	-0.003510	
-0.009003	-0.003510	-0.380407	-0.009308	
-0.008087	0.000153	-0.195468	-0.015411	
-0.003815	0.002289	0.519264	-0.012054	
-0.006256	0.000153	0.284886	-0.011139	
-0.009308	0.002289	0.123446	-0.011749	
-0.010223	0.002594	0.205234	-0.015717	
0.002594	0.012970	0.119783	-0.009003	
-0.005951	0.003815	-0.044099	-0.015717	
-0.002899	0.010223	-0.127413	-0.018158	
-0.006256	0.007782	0.031281	-0.022125	
-0.002289	0.012054	0.119173	-0.007477	
-0.008392	0.004425	0.029144	-0.012970	
-0.003510	0.005951	-0.040742	-0.013885	
-0.005951	0.000763	0.039216	-0.012054	
-0.002899	0.008392	0.056306	-0.005646	
-0.000763	0.004425	-0.063020	-0.000763	
-0.001678	-0.001984	0.156404	-0.003510	
0.001984	-0.005341	0.017853	-0.007477	
0.000458	-0.003815	-0.045930	-0.017242	
0.005646	0.000763	-0.029449	-0.017242	
0.003815	-0.003815	0.006256	-0.009918	
0.009613	0.004120	0.005951	-0.003815	
0.004730	0.000153	-0.007172	-0.012054	
0.010529	0.005646	-0.007477	-0.000153	
0.003204	0.004730	-0.018158	-0.002899	
0.007782	0.009918	-0.024261	0.000153	
0.003815	0.004730	-0.025177	-0.003815	
0.008698	0.011749	-0.013275	-0.001984	
0.007172	0.005646	-0.011749	-0.006866	
0.006256	0.006256	-0.005951	-0.001373	
0.006561	0.003204	-0.006866	0.001068	
0.009003	0.006256	-0.000763	0.001678	
0.000763	-0.000153	-0.003815	-0.005951	
0.003204	0.001678	-0.004425	-0.001678	
0.000458	0.004425	-0.011749	-0.003204	
0.006256	0.004730	-0.007477	-0.009308	
0.004730	0.007172	-0.002289	-0.005035	
0.000763	0.004730	-0.006866	-0.007172	
0.003204	0.008392	-0.004120	-0.009003	
-0.003815	0.001984	-0.000763	-0.010529	
-0.000763	0.006561	0.010529	-0.008392	
0.001068	0.005951	0.021210	-0.008087	
0.001068	0.003815	0.026398	-0.009308	
-0.003815	-0.001373	0.027008	-0.013275	
0.001068	0.006256	0.030365	-0.006866	
0.001984	0.002289	-0.048676	-0.010529	
-0.001068	-0.001373	-0.131685	-0.011139	
-0.005646	0.000763	-0.169833	-0.010529	
-0.005341	-0.000153	-0.265965	-0.005035	
-0.007477	-0.003204	-0.258945	-0.001373	
-0.011444	-0.002289	0.261082	-0.001068	
-0.009613	0.000763	0.607462	-0.000763	
-0.013275	0.000763	0.168918	-0.011749	
-0.011139	0.012054	0.139315	-0.009003	
-0.013580	0.005035	0.170749	-0.009308	
-0.007477	0.004425	0.199740	0.000153	
-0.008392	0.005951	0.113375	0.005035	
-0.010834	0.009003	0.004730	0.004425	
-0.011444	0.007172	-0.083161	-0.001373	
-0.005646	0.009308	-0.363317	0.002899	
-0.009918	0.006256	-0.383154	-0.000763	
-0.002289	0.015106	0.156404	0.016937	
-0.011749	0.004425	0.186007	0.008087	
-0.005951	0.012970	-0.171054	0.001068	
-0.013885	0.004425	-0.071565	-0.010529	
-0.010223	0.007172	-0.122225	-0.003510	
-0.012054	0.002899	-0.023041	-0.000763	
-0.005646	0.002289	0.263218	0.000763	
0.000153	0.000153	0.230259	0.002899	
-0.001984	0.002289	0.222630	0.002899	
-0.002899	0.008698	0.198825	0.002899	
-0.002289	0.003815	0.023041	-0.000763	
0.004120	0.004120	-0.034333	0.004425	
0.003815	0.005951	-0.050813	-0.000153	
0.005646	0.010223	-0.015717	-0.003204	
-0.003815	0.004730	-0.041657	-0.005035	
-0.005035	0.009308	-0.015106	-0.000763	
-0.015411	-0.005951	-0.021820	-0.009308	
-0.020905	-0.011444	-0.154573	-0.011444	
-0.021515	-0.011139	-0.233921	-0.014191	
-0.012360	-0.001373	-0.277866	-0.003510	
-0.013275	-0.002899	-0.079194	0.002594	
-0.009613	-0.001373	0.270542	0.009308	
-0.013580	-0.000153	0.247654	-0.004120	
-0.007477	0.002594	0.127718	-0.012360	
-0.009003	0.002289	0.102083	-0.012970	
-0.013885	-0.001984	0.099642	-0.015717	
-0.007782	0.001678	0.083161	-0.013885	
-0.014801	-0.000763	0.035554	-0.017242	
-0.009613	0.004730	-0.121614	-0.016022	
-0.007782	0.001984	-0.050813	-0.013275	
-0.006256	0.001068	0.304112	-0.009918	
-0.006866	0.003204	0.186618	-0.011749	
-0.005035	0.006561	-0.007172	-0.009918	
-0.010223	-0.002899	-0.339208	-0.018158	
-0.005646	0.002899	-0.515297	-0.014191	
-0.001984	0.009003	-0.283360	-0.011139	
0.005035	0.009308	0.093843	-0.003510	
-0.002289	0.005035	0.244907	-0.010529	
0.002899	0.016022	-0.017242	-0.009003	
-0.000153	0.013275	0.043183	-0.007477	
-0.009613	0.006561	0.160068	-0.000763	
-0.008087	0.011139	0.244297	0.001984	
-0.020294	0.006256	0.282750	-0.001373	
-0.025787	0.007172	0.158237	0.006866	
-0.032197	0.004120	0.038606	0.009918	
-0.015106	0.003815	-0.051423	0.017548	
0.009613	0.006866	-0.244602	0.001068	
0.018463	0.004120	-0.335546	-0.014191	
0.014191	0.002899	-0.207065	-0.009308	
0.016937	0.001984	0.060578	0.008698	
0.002594	-0.001373	-0.040437	0.011139	
-0.001068	0.005951	-0.110628	-0.005646	
-0.005646	0.005646	-0.015717	-0.019379	
-0.015411	0.018768	0.037385	-0.012970	
-0.025482	0.017853	0.016937	-0.017548	
-0.033723	0.009003	-0.019989	-0.018158	
-0.038911	0.002289	-0.059663	-0.017242	
-0.044099	-0.004120	-0.003204	-0.022125	
-0.043183	-0.004120	-0.005646	-0.016632	
-0.045014	-0.003510	-0.029144	-0.019989	
-0.033418	0.001984	-0.047456	-0.010529	
-0.035554	-0.008392	0.103914	-0.010529	
-0.019684	-0.003510	0.178378	-0.007782	
-0.009613	-0.007172	-0.078279	-0.019073	
0.013275	0.003815	-0.114595	-0.014496	
0.013275	-0.012360	-0.120394	-0.026093	
0.026093	-0.003204	0.146639	-0.013275	
0.014496	-0.011139	0.321202	-0.012970	
0.006561	0.004425	0.231480	-0.002899	
0.005646	0.004425	0.073701	-0.009918	
0.043794	0.005951	0.040132	-0.012360	
0.073091	0.004120	0.044404	-0.014496	
0.068818	0.001068	0.130465	-0.012054	
0.055085	-0.003815	0.146334	-0.010223	
0.042268	-0.001678	-0.000153	-0.001678	
0.034944	0.001984	-0.177463	0.006866	
0.019073	0.003815	-0.437781	0.010223	
0.021210	0.013275	-0.597086	0.009918	
0.020294	0.009003	-0.261082	0.002899	
0.019684	0.018768	0.220493	0.016632	
-0.005035	0.023041	0.103914	0.019379	
-0.016327	0.026398	0.252842	0.022736	
-0.014191	0.021820	0.301671	0.017242	
0.001678	0.020294	0.159457	0.011444	
0.012665	0.009308	0.133821	0.012970	
0.006561	-0.009918	0.257725	0.015411	
-0.014191	-0.029144	0.132601	0.022430	
-0.034028	-0.023346	-0.176852	0.024567	
-0.047761	-0.008392	-0.272373	0.027008	
-0.034944	-0.006866	0.333409	0.029449	
-0.009003	-0.010834	0.695659	0.026093	
0.028534	-0.005646	0.385900	0.028229	
0.023956	0.000763	0.216220	0.037080	
0.013275	0.006561	-0.157626	0.039216	
-0.005035	0.005951	-0.789960	0.046540	
-0.036469	0.001984	-1.170520	0.035249	
-0.054170	0.013885	-0.944991	0.024261	
-0.058442	0.013885	-0.151522	0.022430	
-0.019684	0.027313	0.092927	0.022736	
0.016937	0.034333	0.414588	0.008698	
0.004425	0.045320	0.098726	-0.012054	
-0.060578	0.008698	0.266575	-0.027924	
-0.077363	-0.003510	0.368505	-0.023651	
-0.068208	-0.005646	0.373999	-0.032807	
-0.030975	-0.005951	0.178683	-0.028229	
0.001984	0.004425	0.023041	-0.021515	
0.006866	0.011139	0.112459	-0.026398	
-0.012360	0.013885	-0.238499	-0.034028	
-0.033418	0.019379	-0.640116	-0.039826	
-0.009613	0.027313	-0.693217	-0.034944	
0.020599	0.020294	-0.155184	-0.042268	
-0.013885	0.012360	0.435340	-0.048676	
-0.043489	-0.023956	0.224766	-0.047151	
-0.049287	-0.039521	0.428626	-0.037995	
-0.065156	-0.046540	0.544595	-0.043794	
-0.052033	0.002594	0.280613	-0.019989	
-0.039521	0.010529	0.168612	-0.026398	
-0.035249	0.002899	-0.071565	-0.022125	
-0.029449	-0.025177	-0.246738	-0.019073	
0.001068	-0.045014	-0.378881	-0.002899	
0.003815	-0.058442	-0.289159	0.012054	
0.002289	-0.048676	0.002594	0.028229	
0.011139	-0.029755	0.022125	0.020599	
0.019989	-0.015106	0.051118	0.016022	
0.017853	-0.006256	0.080110	0.022430	
0.025787	0.017242	0.523537	0.032502	
0.063325	0.050813	0.067903	0.029144	
0.066682	0.046540	-0.428016	0.029449	
0.049287	0.055390	0.170138	0.032502	
0.023041	0.040132	0.729534	0.011444	
0.007782	0.025177	0.345312	-0.011444	
0.007172	0.052033	0.453345	-0.031281	
0.037995	0.070954	0.244602	-0.027924	
0.038606	0.020599	-0.282140	-0.031281	
0.035249	0.016632	-0.774395	-0.017548	
-0.001678	0.006866	-0.730145	-0.026703	
-0.017242	-0.014801	-0.383154	-0.042573	
-0.019379	-0.023956	-0.573586	-0.053254	
-0.036164	-0.009918	0.261997	-0.040132	
-0.103304	0.005951	0.467078	-0.043489	
-0.063020	-0.001984	0.177157	-0.046235	
-0.006866	-0.033723	0.006866	-0.037690	
0.007782	-0.049287	-0.124666	-0.054475	
0.054780	-0.052339	-0.052033	-0.054170	
0.139009	-0.055696	-0.041963	-0.036775	
0.119478	-0.048066	0.030060	-0.019379	
0.021210	-0.012054	-0.188144	-0.007172	
-0.062409	0.009308	-0.291295	0.002594	
-0.054170	0.011139	-0.497292	-0.002899	
0.012054	0.028229	-0.283360	0.000458	
0.003815	0.025787	0.361792	-0.010529	
-0.009003	0.030975	0.629435	0.002594	
0.026093	0.051118	0.237278	-0.001678	
0.062715	0.072785	0.786298	-0.011749	
0.027008	0.079194	0.669108	-0.016327	
-0.019379	0.076447	0.129244	-0.025787	
-0.049592	0.058442	-0.002899	-0.026398	
-0.044099	0.035249	-0.250401	-0.008392	
-0.040437	-0.022430	0.009918	-0.015717	
-0.045625	-0.114901	-0.045625	-0.025787	
-0.034333	-0.146029	-0.323033	-0.033723	
-0.059358	-0.112154	0.195163	-0.029449	
-0.071565	-0.095675	0.154268	-0.019073	
-0.045930	-0.052033	-0.044709	-0.029449	
0.025177	0.011749	-0.143892	-0.012970	
0.056001	0.092927	-0.275120	-0.019379	
0.028229	0.231480	-0.419776	-0.008087	
-0.068208	0.227512	-0.270542	-0.001678	
-0.056916	0.147554	-0.397192	-0.002899	
0.000458	0.044404	-0.141451	-0.003510	
0.068818	-0.010223	0.313268	-0.009308	
0.105440	-0.101473	0.193942	-0.031281	
0.089875	-0.181735	0.105745	-0.008392	
-0.005035	-0.174106	0.078889	0.035249	
-0.037995	-0.113680	-0.038606	0.054780	
0.007782	-0.089570	-0.056001	0.043183	
0.038301	-0.060578	0.061799	-0.000153	
0.031281	0.010834	-0.048371	-0.054780	
0.021210	0.037385	0.128633	-0.070344	
0.003204	0.072175	0.515602	0.012970	
-0.022430	0.068208	0.113375	0.033723	
-0.035554	0.029144	-0.024567	0.014801	
-0.074006	-0.003204	-0.221714	0.022430	
-0.052033	0.022430	0.103304	0.008087	
0.192721	0.008698	0.216220	-0.018463	
0.411841	-0.002289	0.176547	-0.002899	
0.256504	0.039826	0.097200	0.013275	
0.020905	0.095369	0.105440	0.012665	
-0.132601	0.105745	0.155489	-0.009613	
-0.095980	0.094454	0.083161	-0.063325	
-0.092011	0.000763	0.028229	-0.131990	
-0.147860	-0.103304	-0.037690	-0.089875	
-0.195468	-0.143892	-0.037690	-0.045930	
-0.202487	-0.170138	-0.046845	-0.047761	
-0.135653	-0.188144	-0.068818	-0.033418	
-0.037995	-0.110323	-0.110628	-0.053254	
0.009003	0.071565	-0.108187	-0.060273	
-0.008087	0.183871	-0.068818	-0.066072	
-0.015717	0.269932	-0.047456	-0.054780	
-0.056306	0.263828	-0.037690	-0.048676	
-0.120699	0.292821	-0.041352	-0.064240	
-0.139315	0.289769	-0.057527	-0.063020	
-0.030975	0.195773	-0.052644	-0.052033	
0.125582	0.033113	-0.058442	-0.037385	
0.024872	-0.072785	-0.061494	-0.023651	
-0.144197	-0.132296	-0.059358	-0.020599	
-0.214694	-0.132906	-0.046845	0.014801	
-0.217441	-0.103609	-0.041352	0.068208	
-0.164035	-0.048371	-0.035859	0.069123	
-0.078279	-0.017242	-0.034333	0.063325	
-0.020905	-0.050202	-0.036469	0.070039	
0.017242	-0.126497	-0.017242	0.084382	
-0.048982	-0.198215	-0.019989	0.084382	
-0.018158	-0.180514	-0.013885	0.076142	
0.027924	-0.172580	-0.024261	0.059663	
0.088349	-0.247044	-0.012360	0.043489	
0.109102	-0.224461	-0.012970	0.042573	
0.160068	-0.124361	-0.011749	0.043489	
0.204928	-0.009308	-0.020599	0.049592	
0.170749	0.196689	-0.027008	0.044404	
0.202792	0.237583	-0.033723	0.015106	
0.209201	0.204928	-0.029755	0.005341	
0.124361	0.054475	-0.032502	0.028534	
0.089875	-0.123751	-0.020294	0.075532	
0.067292	-0.220798	0.007172	0.104525	
0.046540	-0.261692	0.029449	0.094759	
0.204623	-0.229343	0.023956	0.038301	
0.174106	-0.142366	0.020599	-0.015717	
-0.061494	0.010529	0.041352	-0.034333	
-0.104525	0.090791	0.047456	0.045320	
-0.077363	0.124361	0.035554	0.054170	
-0.057832	0.115816	0.016937	-0.011444	
-0.031892	0.117647	0.047151	-0.028534	
-0.022125	0.093232	0.066682	-0.010223	
-0.024872	0.124666	0.061494	0.006866	
-0.047761	0.117342	0.031281	-0.046540	
-0.075837	0.062409	0.030060	-0.142061	
-0.095980	0.002594	0.031281	-0.246128	
-0.081635	-0.016327	0.052339	-0.044404	
0.006561	0.034638	0.050202	0.311131	
0.171664	0.118258	0.051423	0.263828	
0.226902	0.161593	0.038606	0.033418	
