NO_OF_SAMPLES	28800
TOT_NO_OF_CHAN	4
FREQUENCY	960.000000
NO_OF_CALC_CHAN	0
TIME_STAMP	2020-02-08, 11:55:03	228381.22308140
FIRST_SAMPLE	1
DESCRIPTION	--
DATA_INCLUDED	Analog
CHANNEL_NAMES	Vastus Lateralis	Vastus Medialis	Tibialis Anterior	Lateral Gastroc
CHANNEL_GAIN	1	1	1	1
FP_LOCATION
FP_CAL
FP_GAIN
Vastus Lateralis	Vastus Medialis	Tibialis Anterior	Lateral Gastroc	
0.054475	0.012360	0.000458	-0.002899	
0.045014	0.029755	-0.013580	-0.002289	
0.030365	0.028839	-0.005951	-0.005646	
0.022736	0.022125	0.008087	-0.005646	
0.012970	0.010529	0.014496	-0.003815	
-0.001678	-0.009918	0.013275	-0.008392	
-0.002899	-0.004120	0.012665	-0.001678	
-0.011749	-0.000153	0.001678	-0.005951	
-0.009003	0.012360	0.004120	-0.002289	
-0.016937	0.010223	0.005951	-0.006256	
-0.016937	0.018158	-0.002899	-0.003510	
-0.021210	0.017853	0.002289	-0.009003	
-0.013580	0.020905	0.010529	0.001068	
-0.016327	-0.007172	-0.005951	-0.008392	
-0.013885	-0.012360	-0.009613	-0.005035	
-0.016327	-0.014191	-0.008392	-0.006256	
-0.017548	-0.002899	0.002899	-0.004120	
-0.016022	-0.004120	0.042573	-0.005341	
-0.005951	-0.010223	-0.034028	-0.000763	
-0.004425	-0.018158	-0.024567	-0.004120	
-0.008087	-0.023651	0.095980	-0.003510	
-0.016937	-0.009003	0.098116	-0.005035	
-0.029144	0.009003	0.033113	-0.007172	
-0.037385	0.017853	0.018768	-0.009003	
-0.048982	0.011749	0.008392	-0.004120	
-0.043183	0.017853	-0.109407	-0.001373	
-0.034333	0.012360	-0.056306	-0.012054	
0.001984	0.032197	0.018768	-0.002899	
-0.001678	0.036469	0.036469	-0.010529	
0.012665	0.034028	0.038606	-0.007172	
0.024872	0.026093	0.027924	-0.010223	
0.066682	0.026093	0.016632	-0.001678	
0.078279	0.008087	-0.001373	-0.011749	
0.066072	-0.012970	-0.033723	-0.008392	
0.043183	-0.061494	-0.141756	-0.009003	
0.000763	-0.064546	-0.178073	-0.004425	
-0.023956	-0.035249	0.053559	-0.007782	
-0.005035	0.016022	0.305333	-0.003204	
0.022125	0.059968	0.214999	-0.003510	
0.028534	0.069123	-0.014191	-0.007172	
-0.017548	0.046235	-0.058747	-0.010223	
-0.048371	0.023346	-0.020599	-0.007477	
-0.065156	0.016632	-0.007477	-0.003204	
-0.081635	-0.008087	0.027008	-0.009308	
-0.077973	-0.016327	0.035554	-0.005341	
-0.065766	-0.034333	-0.003815	-0.007172	
-0.034333	-0.041657	0.021515	-0.003510	
-0.020905	-0.045625	0.012970	-0.014496	
-0.011139	-0.023651	0.004730	-0.009613	
-0.012360	-0.006866	0.001678	-0.009613	
-0.011749	0.000153	0.001068	-0.009003	
0.003815	0.001068	0.001984	-0.009918	
0.016327	-0.001068	0.001984	-0.006256	
0.021210	-0.016327	-0.005951	-0.014191	
0.046845	-0.006256	-0.002289	-0.011444	
0.057832	0.014496	-0.001678	-0.015106	
0.052033	0.026093	-0.005341	-0.016022	
0.042573	0.016632	-0.003815	-0.012054	
0.030975	0.023346	-0.013580	-0.011749	
0.013275	0.006866	-0.011444	-0.008392	
-0.000153	-0.052339	-0.008087	-0.009308	
-0.000153	-0.039826	0.003815	-0.000763	
-0.013275	-0.020905	0.024261	-0.006256	
-0.020905	-0.004120	0.056611	-0.005646	
-0.035249	-0.003510	0.030975	-0.015106	
-0.023041	0.018768	0.055696	-0.001373	
-0.012360	0.007782	0.006866	-0.003510	
-0.022125	0.002289	-0.052949	-0.002289	
-0.038301	-0.017548	0.011139	-0.011749	
-0.027924	-0.013580	0.050202	-0.009613	
-0.024261	-0.001373	0.027924	-0.009308	
-0.019073	0.012970	-0.029144	-0.002289	
-0.019073	0.010223	-0.046235	-0.002899	
-0.019684	-0.008392	-0.023651	-0.003510	
-0.013275	0.005035	-0.032502	0.004120	
-0.009918	0.010529	-0.050508	-0.003510	
0.003204	0.039216	0.002289	0.001678	
0.000763	0.062104	-0.048066	-0.002899	
0.010223	0.068513	0.027008	0.000153	
-0.005951	0.050508	0.037080	-0.011749	
-0.001068	0.042268	0.031587	-0.004120	
-0.006866	0.026093	0.018768	-0.008392	
-0.000763	0.014801	0.015411	-0.004425	
0.013275	0.005035	0.018463	-0.005646	
0.000458	0.008698	0.024261	-0.001678	
-0.039216	-0.014191	0.019989	-0.007172	
-0.042878	-0.014191	0.012665	-0.011749	
-0.001068	-0.001068	0.013275	-0.008392	
0.059968	-0.002899	0.009308	-0.009003	
0.073091	-0.001984	0.007172	-0.008087	
0.049287	0.008392	0.004730	-0.006256	
0.004730	-0.001068	0.005341	-0.010529	
-0.037080	-0.019073	0.006256	-0.011444	
-0.054170	-0.020905	0.018463	-0.004425	
-0.067597	-0.027313	0.019989	-0.010529	
-0.062409	-0.016937	0.021515	-0.004425	
-0.066987	-0.006256	0.019989	-0.010529	
-0.051118	0.002289	0.011749	-0.005035	
-0.019379	-0.005951	-0.003510	-0.011444	
0.016327	-0.013580	0.007782	-0.006866	
0.027008	-0.014191	0.015411	-0.008392	
0.028839	-0.006866	0.021210	-0.010223	
0.024872	-0.009308	0.010529	-0.006866	
0.025177	-0.005035	0.021210	-0.004425	
0.030060	-0.000763	0.019073	-0.009918	
0.025177	0.014191	-0.001678	-0.011749	
0.013885	0.019989	0.017242	-0.013275	
-0.002289	0.011749	0.007172	-0.010529	
-0.011749	0.002289	-0.003510	-0.007782	
-0.007477	-0.009308	-0.003204	-0.013275	
0.012054	-0.005341	0.012970	-0.001984	
0.004730	-0.006866	0.022125	-0.009308	
0.014801	0.005951	0.022125	-0.003510	
0.007782	-0.001068	-0.004425	-0.010529	
0.014801	0.010834	-0.011749	-0.006256	
0.007172	0.002594	-0.018158	-0.009308	
0.016937	0.001678	0.004425	-0.000153	
0.010834	0.004120	-0.002289	-0.009613	
-0.019073	-0.002289	0.045625	-0.000763	
-0.052339	-0.027008	0.105135	-0.006256	
-0.062104	-0.033113	0.025177	-0.003510	
-0.051728	-0.021515	-0.031892	-0.006256	
-0.001984	0.005646	-0.005646	-0.007172	
0.034333	0.028839	0.029144	-0.005035	
0.042268	0.077058	0.011749	-0.003510	
0.011139	0.074922	0.011139	-0.001984	
-0.037080	0.044099	-0.035554	-0.008087	
-0.054170	0.041047	-0.013885	-0.000763	
-0.059968	0.013275	0.006256	-0.004425	
-0.045014	0.003204	-0.002289	-0.006256	
-0.037690	-0.003204	-0.003815	-0.011749	
-0.023956	-0.011444	0.004120	-0.005035	
-0.006866	-0.023651	0.008698	-0.007477	
0.027924	0.000458	0.013885	-0.001678	
0.039826	0.010529	0.010529	-0.007172	
0.045014	0.014496	0.010223	-0.005035	
0.041047	0.007782	0.007782	-0.005035	
0.030975	0.002594	0.012665	-0.001373	
0.018463	0.000763	0.013885	-0.009003	
0.016327	0.007782	0.012054	-0.006256	
0.004120	0.003204	0.004425	-0.007477	
-0.002289	0.005951	0.006866	-0.003510	
-0.001984	0.006561	0.005951	-0.005951	
-0.002899	-0.002289	0.003815	-0.007477	
-0.001984	-0.001068	0.010223	-0.001984	
-0.008392	-0.009918	0.005035	-0.008392	
-0.001678	-0.001068	0.011139	-0.001984	
-0.011749	-0.002899	0.012054	-0.006256	
-0.013885	-0.004425	0.014496	-0.001984	
-0.019379	-0.011139	0.007172	-0.011139	
-0.010834	0.008698	0.006866	-0.005646	
-0.022125	-0.002899	0.001984	-0.010529	
-0.030060	-0.007477	0.010529	-0.003510	
-0.033418	-0.003815	0.005341	-0.005035	
-0.022430	0.007782	0.011139	0.001678	
-0.028839	0.004425	0.014191	0.003815	
-0.031281	-0.000763	0.012054	0.000763	
-0.019684	0.002594	0.010834	0.000153	
-0.013580	0.003204	-0.010223	-0.006866	
-0.011749	0.008087	-0.009613	-0.001984	
-0.015717	0.004730	0.005341	-0.011444	
-0.009613	0.007172	0.073396	-0.003510	
-0.019989	-0.009308	0.030060	-0.009918	
-0.006256	0.005646	-0.041963	-0.003510	
-0.010223	0.004730	-0.074616	-0.014191	
0.013275	0.016022	-0.049592	-0.005646	
0.025177	0.004120	0.075227	-0.011749	
0.036469	0.000153	0.103304	-0.005035	
0.046540	-0.000763	0.009003	-0.011444	
0.025787	0.016327	0.050813	-0.006256	
-0.013275	0.015717	0.024261	-0.007172	
-0.041963	-0.007172	0.001984	-0.004425	
-0.059663	-0.017853	0.030365	-0.011139	
-0.043183	0.001678	0.024872	-0.005035	
-0.023041	0.012970	-0.004120	-0.009003	
-0.023346	0.012970	-0.009918	-0.007477	
-0.025482	0.016632	0.001068	-0.002289	
-0.019073	0.013275	-0.001678	-0.008087	
0.016327	0.008698	-0.018463	-0.001373	
0.055390	-0.012054	-0.014191	-0.005646	
0.074311	-0.024261	0.020294	-0.004120	
0.055085	-0.038301	0.024872	-0.010223	
0.045320	-0.031281	0.045014	-0.002899	
0.027313	-0.027313	0.027313	-0.008087	
0.018463	-0.005035	-0.017548	-0.002289	
0.001678	-0.003510	-0.028229	-0.010223	
-0.014191	0.003815	-0.050202	-0.007782	
-0.026398	0.010223	-0.003204	-0.009003	
-0.029449	0.013275	0.029144	-0.008392	
-0.023956	0.005035	0.050202	-0.009308	
-0.024261	0.010223	0.065766	-0.009308	
-0.019684	0.029755	-0.001984	-0.007782	
-0.021210	0.025177	-0.017548	-0.010223	
-0.001678	0.022430	-0.009003	-0.004425	
0.003204	0.016937	0.002289	-0.011444	
0.009003	0.026703	0.007782	-0.004120	
0.002594	0.014496	0.014191	-0.009308	
0.009918	0.019379	0.013275	-0.000763	
0.001984	0.014496	0.014191	0.000153	
-0.009308	0.022736	0.014496	0.000763	
-0.019379	0.007782	0.001068	-0.002899	
-0.005646	0.000458	0.000458	-0.000763	
0.001068	-0.006256	0.001068	-0.005035	
-0.009613	-0.005646	0.014191	-0.005035	
-0.063020	-0.008087	0.004120	-0.010529	
-0.053559	0.001678	-0.007477	-0.009003	
-0.018158	0.000458	0.003815	-0.009918	
-0.000763	0.008392	0.015411	-0.006256	
-0.001068	0.006256	0.016327	-0.004120	
-0.019073	0.002289	0.005341	-0.008392	
-0.027618	-0.005646	0.008698	-0.003510	
-0.031892	-0.017242	0.007782	-0.003510	
-0.003204	-0.016937	0.008087	-0.000763	
0.008087	-0.028534	0.001678	-0.008392	
0.034028	-0.005646	0.010223	0.000763	
0.034028	-0.002289	-0.003510	-0.007782	
0.038606	0.016632	0.006256	-0.001678	
0.020599	0.022430	0.009003	-0.004425	
0.007172	0.027924	0.012970	-0.000763	
-0.016327	0.017242	0.018463	-0.003204	
-0.014191	0.016327	0.021515	-0.003204	
-0.007477	0.008087	0.012665	-0.009003	
-0.005951	0.008698	0.002289	-0.006866	
-0.008392	0.012360	-0.007477	-0.004120	
-0.005951	0.005035	-0.016937	-0.006866	
0.003204	0.003204	-0.005646	-0.009003	
0.012360	0.004730	0.047761	-0.008392	
0.020599	0.001984	0.076753	-0.009308	
0.030670	-0.008392	0.052949	-0.007477	
0.044404	-0.010834	0.001068	-0.004120	
0.050813	-0.010834	0.025482	-0.010529	
0.061189	-0.019989	-0.011749	-0.003510	
0.011139	-0.025787	-0.002289	-0.009003	
-0.000763	-0.027313	0.017853	-0.006866	
-0.018158	-0.021515	0.008698	-0.008087	
-0.037385	0.022430	0.009003	-0.007477	
-0.060578	0.050202	0.033113	-0.004425	
-0.068208	0.065156	0.029144	-0.005646	
-0.070039	0.060884	0.017853	-0.008392	
-0.071870	0.048982	-0.007477	-0.005646	
-0.074311	0.024872	0.016327	-0.013275	
-0.072480	0.002594	0.044404	-0.014496	
-0.055390	-0.004120	0.005341	-0.007782	
-0.027313	-0.015717	-0.066987	-0.010529	
0.015106	-0.013580	-0.080415	-0.009003	
0.038301	-0.011444	-0.059358	-0.007172	
0.034944	-0.015106	-0.052949	-0.008392	
0.020599	-0.012054	-0.044099	-0.002899	
0.000153	-0.002899	-0.052644	0.001678	
-0.003510	-0.004120	0.109102	-0.006256	
0.008087	-0.001068	0.172275	-0.005951	
0.012665	0.010529	0.041352	-0.017242	
0.012970	0.017242	0.008698	-0.010529	
0.008087	0.002289	-0.000153	-0.014496	
0.002899	0.000458	0.017853	-0.011444	
-0.002289	-0.017242	-0.024261	-0.009308	
-0.004425	-0.036164	-0.119478	-0.002289	
-0.006866	-0.024261	-0.066377	0.000153	
-0.011749	-0.013885	0.048982	-0.002289	
0.006561	0.000153	0.090180	-0.005646	
0.027924	0.023346	0.088960	-0.007782	
0.020294	0.026703	-0.016022	-0.004425	
-0.003815	0.003815	-0.052033	-0.006866	
-0.017853	0.000153	0.001678	0.002594	
-0.035859	-0.009918	0.063630	-0.001984	
-0.041047	-0.009308	0.048982	0.001984	
-0.033418	-0.011139	-0.008392	-0.000763	
-0.009308	-0.011444	0.024872	-0.000153	
0.004730	-0.012970	0.016632	-0.014496	
0.020599	-0.002289	0.012665	-0.012054	
0.031281	0.001984	0.038606	-0.006256	
0.016937	0.012970	0.019073	-0.005951	
-0.005951	0.008392	0.008392	-0.012054	
-0.004425	0.011749	0.008698	-0.010223	
-0.001068	0.019073	0.003204	-0.006866	
0.006561	0.028229	0.004425	-0.011444	
0.014801	0.030670	0.014496	-0.010223	
0.009613	0.033418	0.010529	-0.010529	
0.030365	0.037385	0.008392	-0.003510	
0.018768	0.010529	-0.010834	-0.005646	
0.001984	-0.012970	-0.002289	-0.002899	
-0.011139	-0.019073	-0.003204	-0.013275	
-0.011749	-0.015411	-0.011139	-0.011139	
-0.029755	-0.003815	-0.008392	-0.007172	
-0.056306	0.013275	0.004120	-0.001984	
-0.076142	0.008698	0.052339	-0.013275	
-0.092317	0.015106	0.009308	-0.009308	
-0.071259	0.001678	-0.030365	-0.008392	
-0.031892	0.013885	-0.027313	0.000153	
0.014496	0.009308	-0.040742	-0.001984	
0.060273	0.006561	0.024261	-0.009003	
0.058137	0.001984	0.057221	-0.010529	
0.018463	-0.007172	0.116121	-0.007477	
-0.012360	-0.014191	0.067597	-0.002899	
0.000763	-0.022125	0.020905	0.000458	
0.027008	-0.009003	-0.012970	0.003815	
0.034333	0.000763	-0.058747	-0.005951	
0.027008	0.008087	-0.075837	-0.000763	
0.002594	0.000763	-0.031587	-0.003510	
-0.015106	-0.001984	-0.003510	-0.003204	
-0.029755	-0.007172	0.019989	-0.003204	
-0.037690	-0.005646	0.030365	-0.003204	
-0.034333	-0.009003	0.021210	-0.007782	
-0.012360	0.000153	0.018463	-0.005646	
0.007172	-0.002899	0.014801	-0.009918	
0.013275	-0.000153	0.010529	-0.007782	
0.006561	0.005951	0.009918	-0.010223	
-0.005951	-0.017548	0.004730	-0.008392	
-0.015411	-0.045625	0.009918	-0.007477	
-0.025787	-0.023041	0.007782	-0.004120	
-0.034333	0.001068	0.008392	-0.007477	
-0.021515	0.026093	0.008392	-0.008087	
0.002594	0.040437	0.014801	-0.005035	
-0.001373	0.037080	-0.001068	-0.015106	
-0.024872	0.042878	-0.004425	-0.006256	
-0.039826	0.022125	-0.000153	-0.011444	
-0.009613	0.012665	0.005341	-0.007782	
0.013275	0.009003	0.037080	-0.008392	
0.045930	-0.001373	0.081635	-0.005341	
0.042268	-0.005646	0.067292	-0.019379	
0.032197	0.005646	0.012054	-0.013275	
0.025787	-0.005646	-0.037385	-0.011749	
0.012665	-0.029449	-0.012054	-0.010529	
-0.015106	-0.032502	-0.011139	-0.008087	
-0.017853	-0.030060	-0.064240	-0.000763	
-0.017548	-0.000763	-0.048676	-0.001678	
-0.023041	0.022430	-0.010223	-0.008392	
-0.018158	0.037385	0.022430	-0.008392	
-0.023956	0.036775	0.022736	-0.008087	
-0.027618	0.034638	0.015411	-0.007782	
-0.021210	0.022736	0.018463	-0.009308	
-0.010223	0.019073	0.016937	-0.005341	
-0.019379	0.013275	0.010529	-0.011139	
-0.016022	0.004120	0.012665	-0.003510	
-0.013275	-0.006866	0.009308	-0.007477	
0.004730	0.001984	0.018463	-0.001068	
0.013885	-0.007172	0.014496	-0.008087	
0.024872	0.001068	0.014496	-0.004425	
0.012360	0.004425	0.017242	-0.005035	
0.008392	0.012360	0.012665	-0.003204	
0.001068	0.012054	0.002289	-0.009308	
-0.001373	0.013885	0.024261	-0.004425	
-0.007782	0.004120	0.019989	-0.005646	
-0.009613	-0.009308	-0.017242	-0.009308	
-0.003204	-0.003815	0.006256	-0.001984	
-0.004425	-0.013885	0.002594	-0.008392	
0.001068	-0.008392	-0.003204	-0.007782	
-0.000763	-0.004120	-0.000763	-0.011749	
0.001984	0.012360	0.023346	-0.001678	
-0.013885	0.012360	0.022125	-0.011444	
-0.008392	0.005646	0.011139	-0.009308	
-0.020294	-0.023651	0.014191	-0.015106	
-0.025177	-0.027924	0.025177	-0.007477	
-0.034028	-0.031587	0.024261	-0.009308	
-0.040437	-0.020905	0.001984	-0.004425	
-0.052949	-0.011749	0.000763	-0.007172	
-0.035554	-0.003815	0.047761	-0.001678	
-0.021820	-0.006256	-0.035249	-0.000763	
0.000763	-0.008087	-0.108492	0.001984	
0.018768	-0.018463	-0.056001	0.001068	
0.025177	-0.005035	-0.029755	-0.009308	
0.040132	0.020599	0.071259	-0.003510	
0.055085	0.037385	0.102083	-0.004120	
0.063935	0.036775	0.052339	-0.003815	
0.036469	0.020905	0.022736	-0.009308	
0.022125	0.022125	0.033418	-0.001678	
-0.015106	0.017853	0.009308	-0.009613	
-0.026093	0.012360	0.016632	-0.005646	
-0.031281	-0.002289	0.020599	-0.007477	
-0.024261	-0.007172	0.022736	-0.006866	
-0.015106	-0.012970	0.015411	-0.016022	
-0.007477	0.002899	0.019989	-0.011749	
-0.003815	0.016937	-0.006256	-0.009308	
-0.019073	0.019379	-0.013885	-0.003510	
-0.034944	0.008087	-0.008087	-0.008392	
-0.033418	0.008392	-0.002899	-0.006256	
-0.035554	0.009003	-0.013885	-0.009918	
-0.029144	0.019379	-0.029449	-0.011444	
-0.012054	0.027313	-0.040437	-0.006866	
-0.001068	0.026703	-0.030365	-0.011139	
0.028229	0.027008	-0.000153	-0.003510	
0.043794	-0.002289	0.091706	-0.003204	
0.048676	-0.023346	0.125582	-0.001984	
0.026093	-0.020905	0.052949	-0.011749	
0.019989	-0.068513	-0.069123	-0.004425	
0.007172	-0.074311	-0.107271	-0.003204	
-0.009308	-0.055085	0.038911	0.000153	
-0.004120	-0.015411	-0.021210	-0.005646	
0.001678	0.040437	-0.009613	0.002289	
-0.038301	0.059968	0.075837	-0.001678	
-0.059358	0.056611	0.013885	-0.007782	
-0.061189	0.046235	0.017853	-0.005035	
-0.059052	0.032502	0.064546	-0.006256	
-0.058442	0.010834	0.106050	-0.009308	
-0.037385	-0.008392	-0.011749	-0.011444	
-0.017242	-0.002289	-0.043183	-0.002899	
-0.006866	0.001068	0.012665	-0.009918	
0.049897	0.024567	-0.020599	-0.004425	
0.066377	0.032502	0.018463	-0.011749	
0.066987	0.035249	0.031587	-0.005951	
0.032502	0.030670	0.019989	-0.009613	
0.014191	0.028229	-0.013580	-0.005646	
-0.006256	0.011139	-0.017853	-0.016022	
-0.012054	0.005646	0.004120	-0.009918	
-0.015106	-0.003510	-0.010834	-0.008087	
-0.018158	-0.008087	-0.007477	-0.009308	
-0.017853	-0.014801	0.008392	-0.004120	
-0.012054	-0.020905	0.005951	-0.007172	
-0.005035	-0.023041	0.004730	-0.009308	
-0.001984	-0.041047	-0.006256	-0.009003	
-0.011749	-0.035859	0.007782	-0.005035	
-0.057221	-0.024872	0.013275	-0.011139	
-0.063630	-0.003510	0.022430	-0.003510	
-0.060578	-0.002289	-0.002289	-0.009003	
-0.030365	-0.015411	-0.007172	-0.002899	
-0.006256	-0.017853	-0.019989	-0.007477	
0.028839	0.003815	-0.000153	-0.001984	
0.034333	0.012054	0.007782	-0.001678	
0.024567	0.024567	0.010834	-0.001068	
0.001068	0.019379	0.003204	-0.011139	
0.007172	0.016937	0.010223	-0.004425	
0.000153	0.002899	0.010223	-0.004120	
0.001678	0.000763	0.013275	0.001678	
-0.003204	-0.008392	0.010834	-0.001984	
-0.001678	-0.011444	0.011139	-0.003510	
0.008087	-0.025787	0.012970	-0.006256	
0.015106	-0.032197	0.009918	-0.005951	
0.037080	-0.010834	0.016022	-0.009003	
0.053254	-0.003815	0.015411	-0.015411	
0.044709	0.010223	0.030670	-0.009918	
0.023956	0.019073	0.030365	-0.006256	
0.006866	0.021820	0.033113	-0.003204	
-0.021210	0.013885	0.030670	-0.012054	
-0.027008	0.008392	0.004120	-0.006256	
-0.045014	-0.023956	-0.056916	-0.011749	
-0.034028	-0.009918	-0.050202	-0.008392	
-0.031587	-0.012360	-0.007172	-0.010529	
-0.025482	-0.004120	0.004425	-0.004120	
-0.030365	0.008392	0.016327	-0.008392	
-0.033418	0.023041	0.006866	-0.002289	
-0.051118	0.028839	0.006866	-0.009003	
-0.051423	0.036164	0.023346	-0.009308	
-0.038301	0.040132	0.053254	-0.007782	
-0.018158	0.030060	0.068818	-0.009308	
0.002594	0.010223	0.072480	-0.009308	
0.013275	-0.012970	0.004120	-0.005951	
0.010834	-0.016937	-0.083772	-0.001984	
-0.000763	-0.019989	-0.045930	-0.008392	
-0.015411	-0.017242	0.018768	-0.008087	
-0.021210	-0.028534	-0.015106	-0.015717	
0.007782	-0.021820	-0.007172	-0.009308	
0.019073	-0.022125	-0.041657	-0.010529	
0.024567	-0.009003	-0.038301	-0.002899	
0.009613	0.003204	0.006866	-0.004425	
-0.003510	0.012970	0.002899	-0.001678	
-0.016327	0.014191	0.060578	-0.004425	
-0.013580	0.025177	0.058747	-0.005951	
0.001984	0.018768	0.063935	-0.005035	
0.019073	0.014801	0.059358	-0.004425	
0.020294	0.014496	0.024261	-0.011139	
0.015717	0.018768	0.027924	-0.009308	
0.014496	0.030365	0.009918	-0.005035	
0.005951	0.027008	-0.008087	-0.009308	
0.001678	0.026093	-0.033418	-0.001678	
-0.003510	0.028229	-0.050813	-0.001678	
-0.028839	0.028839	-0.048066	-0.007477	
-0.041047	0.016022	-0.043794	-0.003510	
-0.011139	0.017242	0.011139	0.004120	
0.008698	0.005951	-0.064851	-0.005035	
0.022430	0.007172	-0.001068	-0.002899	
0.028839	0.004730	0.154268	-0.000153	
0.019073	-0.026398	0.121004	-0.005951	
-0.009003	-0.053254	0.051423	-0.009308	
-0.027618	-0.046540	0.009003	-0.004425	
-0.055085	-0.034028	0.030975	-0.007477	
-0.041963	0.007172	0.000458	-0.003204	
-0.021210	0.028229	0.012360	-0.003204	
-0.007782	0.029755	0.004120	-0.006256	
-0.012054	0.026093	0.014496	-0.008392	
-0.029755	0.012970	0.016937	-0.012054	
-0.028839	-0.000763	0.005341	-0.005341	
-0.015411	-0.019073	-0.000763	-0.009613	
0.006866	-0.024872	0.001984	-0.004120	
0.007782	-0.034944	-0.011139	-0.011444	
0.016632	-0.016937	-0.003204	-0.005951	
0.019073	-0.013885	0.002594	-0.015717	
0.024261	-0.002899	0.045014	-0.005646	
0.009613	-0.001068	-0.014191	-0.010223	
0.004425	0.004425	-0.046845	-0.011444	
0.017242	0.009003	-0.019379	-0.010223	
0.043794	0.010223	-0.029755	-0.012054	
0.019073	0.006561	0.091096	-0.007782	
-0.031281	0.003204	0.062715	-0.008087	
-0.024872	-0.001373	-0.034333	-0.007172	
0.040742	0.004120	0.046540	-0.000153	
0.044404	-0.012360	0.022125	-0.007172	
0.009918	-0.034028	-0.002289	-0.008392	
-0.010223	-0.027313	0.075227	-0.004425	
-0.011749	-0.026398	0.168918	-0.004120	
-0.022430	0.001678	0.042573	-0.003204	
-0.084382	0.045930	-0.024567	-0.005035	
-0.081635	0.072480	-0.084382	-0.001678	
-0.075837	0.055390	-0.202182	-0.006256	
-0.065766	0.041352	-0.088349	-0.010529	
-0.048371	0.024261	-0.063020	-0.011444	
-0.017548	0.030365	-0.024567	-0.001984	
-0.003815	0.038911	-0.012360	-0.005341	
0.018768	0.045320	0.037385	-0.003510	
0.022736	0.034638	0.004120	-0.006256	
0.012970	0.018768	0.016022	-0.005646	
0.023956	0.018158	0.024872	-0.003815	
0.025177	0.020905	0.016937	-0.007477	
0.028839	0.011749	0.024567	-0.007172	
0.027924	0.007172	0.033418	-0.006256	
0.019684	0.009003	0.032807	-0.003510	
0.014191	-0.001068	0.023346	-0.013275	
0.019989	-0.002899	0.014801	-0.005951	
-0.005646	-0.024261	-0.035249	-0.012360	
-0.016327	-0.037995	-0.016327	-0.005035	
-0.019989	-0.046540	0.054780	-0.006256	
-0.017242	-0.037995	0.054475	-0.005341	
-0.012360	-0.035249	0.032502	-0.005646	
-0.005951	-0.019073	0.005951	0.001068	
-0.018463	-0.011444	-0.011444	-0.009003	
-0.031281	0.006256	0.016327	-0.006256	
-0.033418	0.004425	0.036164	-0.009003	
-0.018158	-0.001373	0.091096	-0.009003	
-0.012360	-0.004120	-0.002289	-0.004120	
-0.018158	-0.011139	-0.053864	-0.005035	
-0.029755	-0.043489	-0.044404	-0.009308	
-0.031281	-0.041657	-0.020294	-0.007782	
-0.002899	-0.018463	0.044404	-0.002289	
0.031892	-0.001068	0.070039	-0.009918	
0.060578	0.031281	0.064546	-0.005035	
0.052949	0.034944	-0.031281	-0.013885	
0.050813	0.043183	-0.031892	-0.001984	
0.037995	0.031892	0.031281	-0.003510	
0.031281	0.014496	0.028839	-0.003510	
0.013885	0.002899	-0.011444	-0.013275	
0.012360	0.016632	0.016022	0.000153	
0.003815	0.020599	0.014191	-0.006866	
-0.001678	0.023041	0.020599	-0.004425	
-0.010223	0.016022	-0.011139	-0.009308	
-0.014191	0.009003	-0.030060	-0.007782	
-0.017548	0.009003	-0.009003	-0.006866	
-0.023346	0.003204	-0.000153	-0.007477	
-0.027313	0.001068	0.091096	-0.006256	
-0.028229	0.003815	0.014191	-0.006256	
-0.027618	0.008392	-0.021820	-0.004120	
-0.027618	-0.001068	0.012054	-0.009308	
-0.010223	0.001984	0.050813	0.002289	
-0.007477	-0.008087	0.055085	-0.000763	
-0.009613	-0.008087	-0.006866	-0.002289	
-0.013885	-0.012970	0.005341	-0.009308	
-0.012054	-0.008392	0.004730	-0.005646	
-0.014801	-0.011444	0.001984	-0.011749	
-0.010834	-0.003204	0.004120	-0.005341	
-0.016327	-0.003510	0.004120	-0.007782	
-0.020294	-0.000763	0.000153	-0.008392	
-0.022430	-0.005341	0.002289	-0.009003	
-0.037690	-0.014191	0.001068	-0.003815	
-0.029449	-0.005646	0.008087	0.001068	
-0.011139	0.003204	0.004120	-0.006866	
0.009918	0.019379	0.003204	-0.009918	
0.014496	0.024261	0.001068	-0.014191	
0.005646	0.025177	0.002899	-0.008392	
-0.011139	0.018158	0.001068	-0.010223	
-0.012054	0.016632	0.007782	-0.004120	
-0.021210	-0.002899	0.003815	-0.009308	
-0.015411	-0.011444	0.004730	-0.003510	
-0.013885	-0.023346	0.002594	-0.008392	
-0.001984	-0.013580	0.008698	-0.004120	
0.000458	-0.016937	0.000153	-0.012970	
0.019989	-0.013580	0.000763	-0.005646	
0.013275	-0.017853	-0.001373	-0.006256	
0.014801	-0.019379	0.007782	-0.005035	
0.021210	-0.016022	0.008392	-0.005951	
0.028229	-0.004425	0.004120	-0.005035	
0.021210	0.002289	0.004730	-0.010529	
0.013275	0.005035	0.008392	-0.005646	
0.001678	0.017242	0.009308	-0.001984	
-0.012054	0.007782	0.005035	-0.007172	
-0.011139	-0.010834	0.011749	-0.005035	
-0.017242	-0.007782	0.004120	-0.009613	
-0.006256	0.014801	0.012665	-0.003510	
-0.009918	0.037385	0.003204	-0.011139	
-0.021820	0.054475	0.010223	-0.007172	
-0.015106	0.012970	0.004730	-0.016022	
0.068208	0.001984	0.011749	-0.003204	
0.069123	0.007782	0.008392	-0.008392	
0.020599	0.027924	0.012970	-0.002899	
-0.034944	0.017242	0.007782	-0.011139	
-0.078279	0.018768	0.008087	-0.006256	
-0.103304	0.006256	0.009918	-0.005341	
-0.102694	-0.035249	0.005951	-0.005035	
-0.108492	-0.027008	0.011749	-0.005341	
-0.108187	-0.006256	0.010834	-0.005646	
-0.063630	0.013275	0.010223	-0.005951	
-0.027008	0.025177	0.010834	-0.005646	
0.012054	0.033113	0.014496	-0.001068	
0.019684	0.023956	0.008698	-0.005646	
0.039216	0.028839	0.014191	-0.001984	
0.050813	0.023346	0.015411	-0.007172	
0.052339	0.019379	0.017853	-0.003204	
0.045320	0.010834	0.010223	-0.009308	
0.063935	0.013885	0.013275	-0.005035	
0.078889	0.005646	-0.000763	-0.008087	
0.082551	0.007782	0.010529	-0.003510	
0.064240	0.005035	0.009918	-0.007172	
0.047151	0.008392	0.009918	-0.009918	
0.018158	0.009003	0.021210	-0.013275	
0.000153	0.007782	0.017242	-0.011444	
0.020599	-0.003204	0.010529	-0.011139	
0.062104	-0.034944	0.005341	-0.012360	
0.037690	-0.055390	0.005951	-0.012054	
0.013275	-0.059663	0.001068	-0.015106	
-0.019073	-0.039216	0.004120	-0.009613	
-0.071870	-0.010834	0.003815	-0.011749	
-0.112154	0.004425	0.004120	-0.009918	
-0.125887	-0.031587	0.004425	-0.004120	
-0.109407	-0.012970	0.001678	-0.000153	
-0.113070	0.007172	-0.003510	-0.006256	
-0.095980	0.034028	0.011139	0.001678	
-0.075227	0.041963	0.016327	-0.007172	
-0.032502	0.030670	-0.033418	-0.004425	
-0.006866	0.021210	-0.032502	-0.005035	
0.016632	0.034638	0.047761	-0.002899	
0.046540	0.040437	0.028534	-0.004120	
0.062715	0.024261	0.021515	-0.009003	
0.074006	0.016327	0.021515	-0.010529	
0.064851	0.008392	0.007172	-0.012970	
0.048676	0.002289	0.023346	-0.012360	
0.035859	-0.002289	0.009918	-0.012360	
0.022430	-0.006866	0.001984	-0.007477	
0.006866	-0.012054	-0.000153	-0.010529	
0.005035	-0.009918	-0.001068	-0.007477	
-0.005951	-0.009003	-0.001068	-0.013275	
-0.014191	-0.005341	0.023346	-0.006256	
-0.025482	-0.009613	0.013885	-0.009003	
-0.022125	-0.007477	-0.019379	-0.008392	
-0.013885	-0.012970	-0.001373	-0.013275	
0.000153	-0.011139	0.025482	-0.007477	
-0.021820	-0.016327	0.024872	-0.010223	
-0.029449	-0.037995	0.008698	-0.011749	
-0.016022	-0.055696	0.006866	-0.011749	
-0.007782	-0.034944	0.009918	-0.009308	
-0.038301	0.004120	0.012665	-0.009613	
-0.071259	0.028839	0.003815	-0.010529	
-0.036164	0.027924	0.001984	-0.009308	
0.013275	0.025177	0.002899	-0.004425	
0.022125	0.017853	0.007782	-0.001984	
-0.008392	0.005951	0.000458	-0.005951	
-0.039216	0.004120	0.007782	-0.000153	
-0.062104	-0.021210	0.006561	-0.007782	
-0.042268	-0.009308	0.011139	-0.001984	
-0.025177	-0.006256	0.008698	-0.003510	
0.004120	0.022430	0.008392	-0.000153	
0.031892	0.016022	0.005951	-0.000763	
0.054475	0.007172	0.006256	0.001068	
0.046540	-0.005951	0.002594	-0.009003	
0.034028	-0.007172	0.008698	-0.002899	
0.014191	-0.004120	0.006866	-0.005951	
0.008392	0.015106	0.006256	-0.005951	
0.000763	0.026398	0.005341	-0.010529	
0.006561	0.024872	0.009918	-0.005646	
0.015717	0.030365	0.011749	-0.002899	
0.023041	0.051118	0.010529	-0.007172	
0.017853	0.044709	0.010529	-0.001984	
0.026703	0.012665	0.007172	-0.001984	
0.025177	0.005035	0.008392	-0.001373	
-0.005646	-0.018463	0.002899	-0.005646	
-0.057221	-0.013885	0.008392	0.000153	
-0.104525	-0.028534	0.011139	-0.005035	
-0.128633	-0.015106	0.012665	-0.000763	
-0.177768	-0.002289	0.000458	-0.000763	
-0.173190	0.004425	0.006866	0.000763	
-0.091706	-0.023346	0.008698	-0.002899	
0.006561	-0.001373	0.009003	-0.003204	
0.089875	0.014191	0.008698	-0.003204	
0.115206	0.023041	0.002899	-0.011444	
0.116121	0.019379	0.012665	-0.004120	
0.111544	-0.005341	0.006866	-0.007477	
0.094149	-0.005646	0.013885	-0.002899	
0.065766	-0.002899	0.006561	-0.007782	
0.051728	0.006256	0.012665	-0.003510	
0.030975	0.004425	0.008698	-0.013275	
0.030365	0.007172	0.009308	-0.009308	
0.019989	-0.006866	0.007782	-0.007477	
0.012665	-0.001373	0.009003	-0.003510	
-0.001068	0.004425	0.004425	-0.008392	
-0.000153	0.019379	0.008392	-0.004120	
-0.020294	0.016022	0.004730	-0.009918	
-0.058442	0.018463	0.009918	-0.004425	
-0.066072	0.012054	0.007172	-0.005035	
-0.032197	-0.001678	0.008698	-0.003510	
-0.003815	-0.025787	0.009918	-0.002289	
0.001678	-0.036469	0.004120	-0.009918	
-0.004425	-0.032502	0.004425	-0.008087	
-0.027008	-0.037690	0.002594	-0.011139	
-0.045320	-0.031587	0.006866	-0.009308	
-0.049592	-0.013580	0.003204	-0.010529	
-0.049287	0.016632	0.007172	-0.004120	
-0.065461	0.020905	0.004120	-0.011139	
-0.057221	0.027313	0.011749	-0.007782	
-0.045320	0.012360	0.010223	-0.011139	
-0.028839	0.011749	0.011139	-0.007782	
-0.026093	0.007782	0.008392	-0.016022	
-0.028229	0.014496	0.013885	-0.002899	
-0.019989	-0.015106	0.006561	-0.009918	
0.017853	-0.011444	0.008698	-0.007782	
0.064546	0.012360	0.010529	-0.003510	
0.115511	0.047456	0.008698	-0.004120	
0.132296	0.034333	0.009918	-0.000153	
0.074922	-0.052644	0.005341	-0.005646	
-0.027313	-0.126192	0.004120	-0.006256	
-0.089570	-0.089570	0.001678	-0.011749	
-0.106050	0.002289	0.012054	-0.004425	
-0.119478	0.072785	0.000153	-0.017853	
-0.106050	0.117647	0.009918	-0.008087	
-0.080415	0.110323	-0.001068	-0.012970	
-0.041047	0.100252	0.007172	-0.005035	
-0.023651	0.066987	0.021515	-0.014191	
0.001984	0.048676	0.030670	-0.009003	
0.022430	0.011749	0.026398	-0.011444	
0.052033	-0.017548	0.015411	-0.006256	
0.070039	-0.023651	0.003204	-0.011444	
0.032502	0.000153	0.001984	-0.006256	
0.009918	0.026398	-0.018158	-0.009308	
0.089875	0.038911	-0.016937	-0.001678	
0.140230	-0.034028	-0.003204	-0.000153	
0.114901	-0.100252	0.011139	-0.002899	
0.073396	-0.084077	0.014191	-0.000763	
0.019073	-0.028534	0.015411	-0.001373	
-0.025177	0.020599	0.078889	-0.003510	
-0.060273	0.037995	0.036469	-0.008392	
-0.072175	0.024872	-0.022430	-0.006256	
-0.073701	0.004120	-0.032502	-0.011444	
-0.065156	-0.001068	-0.012054	-0.003510	
-0.049897	-0.014191	0.010223	-0.007782	
-0.036164	-0.023041	0.030060	-0.009308	
-0.035554	-0.022125	0.035554	-0.009918	
-0.012360	-0.005951	0.014191	-0.000153	
0.013275	-0.011139	0.010834	-0.010529	
0.014191	-0.019684	0.001068	-0.009003	
-0.011139	-0.033113	-0.034638	-0.009918	
-0.014801	-0.033723	-0.015411	-0.006256	
-0.033113	-0.034944	0.042268	-0.012970	
-0.036164	-0.006256	0.072480	-0.009613	
-0.033723	0.014496	-0.002289	-0.007782	
-0.025787	0.029755	-0.025787	-0.006866	
-0.007477	0.042268	-0.009613	-0.000763	
-0.005341	0.035859	-0.007477	-0.009613	
0.002594	0.037385	0.009308	-0.007782	
0.012054	0.024872	0.009003	-0.009003	
0.026093	0.018768	0.030365	-0.006866	
0.025177	0.008698	0.027924	-0.011749	
0.037690	0.011139	0.011749	-0.003510	
0.042268	0.008087	0.014801	-0.005646	
0.040742	0.016022	0.008087	-0.006866	
0.036164	0.016022	0.020599	-0.007172	
0.022125	0.008392	0.019989	-0.009003	
0.016327	0.008087	0.006256	-0.011749	
0.029755	0.014801	0.012665	-0.005951	
0.016937	0.014191	0.019073	0.000153	
-0.002899	-0.004120	-0.009613	-0.002899	
-0.021210	-0.032197	-0.036775	-0.002289	
-0.037995	-0.049287	-0.049897	-0.012054	
-0.043489	-0.025787	-0.005035	-0.004120	
-0.052949	0.006561	0.017853	-0.003510	
-0.040437	0.030670	0.024261	-0.005646	
-0.034944	0.000458	0.014191	-0.007477	
-0.024872	-0.012970	-0.018463	-0.001373	
-0.048371	-0.012360	0.001068	-0.003815	
-0.069123	-0.013275	0.012360	-0.004120	
-0.059663	-0.019684	0.014496	-0.007782	
-0.030060	-0.012360	0.016937	-0.009613	
-0.010223	-0.009613	0.012054	-0.012054	
0.012970	0.005951	0.011139	-0.006866	
0.024567	0.004730	0.012665	-0.002899	
0.022430	0.000153	0.013275	-0.001984	
0.015717	0.004730	0.012970	-0.001984	
0.006256	-0.002899	0.006866	-0.010529	
-0.008087	-0.005341	0.008392	-0.011444	
-0.000763	-0.007172	0.008087	-0.013275	
0.021210	0.007172	0.014191	-0.008392	
0.039216	0.008392	0.011139	-0.015106	
0.070954	0.030975	0.019073	-0.007477	
0.074922	0.040132	0.005951	-0.012054	
0.048676	0.043183	0.007782	-0.004120	
0.003815	0.017853	0.001678	-0.005646	
0.002289	0.013885	0.004425	-0.002289	
-0.001678	0.020294	0.004425	-0.009918	
0.006561	0.013885	0.014496	-0.005341	
0.001068	-0.005646	0.007782	-0.009308	
-0.025787	-0.011444	0.005951	-0.005035	
-0.063020	0.001068	0.004425	-0.007477	
-0.068208	0.036775	0.008392	-0.003510	
-0.090486	0.026703	0.007782	-0.005951	
-0.090180	-0.045930	0.009003	-0.005341	
-0.032197	-0.074006	0.014191	-0.001373	
0.010223	-0.102388	0.005341	-0.005035	
-0.017853	-0.134432	0.004730	0.000153	
-0.083772	-0.052339	0.000763	-0.009613	
-0.071870	0.033113	0.004730	-0.009918	
-0.021210	0.098421	0.005341	-0.012970	
-0.014801	0.119478	0.009918	-0.009308	
-0.039216	0.096590	0.006256	-0.009308	
-0.045014	0.074616	0.010529	-0.004425	
-0.027008	0.045014	0.004730	-0.009308	
0.008392	0.011139	0.009003	-0.005646	
0.027924	-0.019073	0.012054	-0.011444	
0.058137	-0.015106	0.013275	-0.009918	
0.070344	-0.005646	0.012665	-0.005035	
0.089265	-0.011139	0.006256	-0.006256	
0.086213	-0.005341	0.013275	-0.005646	
0.055085	0.000763	0.006866	-0.010529	
0.048371	0.012360	0.006866	-0.008392	
0.041047	0.017242	0.002899	-0.010223	
0.045014	0.017853	0.004120	-0.002899	
0.030670	0.004120	-0.001068	-0.012054	
0.028839	0.019073	0.014801	-0.004425	
0.020294	0.010529	0.001068	-0.013275	
0.034333	-0.005646	0.034028	-0.002289	
0.026703	-0.016022	0.009308	-0.005341	
0.010834	0.010834	0.003204	-0.004425	
0.012054	0.010223	0.004425	-0.009003	
0.018463	-0.012360	0.005951	-0.003204	
-0.016022	-0.037080	0.001984	-0.011139	
-0.085908	-0.034333	0.009003	-0.005035	
-0.145723	-0.032502	0.009003	-0.003510	
-0.170138	-0.040132	0.008698	-0.004425	
-0.171359	-0.048066	0.011139	-0.005951	
-0.139925	-0.027924	0.010529	-0.006256	
-0.092317	-0.003204	0.010223	-0.003510	
-0.060273	0.002289	0.006866	-0.010223	
-0.023346	0.012360	0.011139	-0.005951	
0.002289	0.014496	0.006866	-0.009308	
0.031892	0.026703	0.012360	-0.003204	
0.033113	0.027313	0.008392	-0.009308	
0.036469	0.040437	0.016327	-0.005951	
0.023651	0.041047	0.008392	-0.009918	
0.026703	0.033113	0.006866	-0.008392	
0.027008	0.017242	0.004730	-0.007782	
0.030670	0.017853	0.008392	-0.007477	
0.026093	0.008087	0.007782	-0.010223	
0.028534	0.008087	0.010834	-0.005035	
0.020599	0.001678	0.007172	-0.010529	
0.017242	-0.002899	0.008392	-0.009918	
0.013275	-0.000763	0.009918	-0.004425	
0.011139	-0.001068	0.004730	-0.006866	
0.011139	-0.003510	0.006866	-0.005035	
0.005951	-0.001678	0.001984	-0.009003	
0.005646	0.005951	0.010529	-0.003204	
-0.001068	-0.001373	0.004730	-0.009918	
0.005951	0.004120	0.009003	-0.003815	
-0.003510	-0.001678	0.005341	-0.009308	
0.006561	0.013275	0.009918	-0.001984	
0.007782	0.015106	0.001678	-0.007782	
0.019684	0.030975	0.008698	-0.001373	
0.010223	0.020294	0.004425	-0.007782	
0.005951	0.012054	0.005035	-0.006866	
-0.002289	0.001984	0.005341	-0.008392	
-0.011139	0.002594	0.005035	-0.003815	
-0.015106	-0.007172	0.006561	-0.003815	
-0.016327	-0.017548	0.005341	-0.008087	
-0.019684	-0.017853	0.006561	-0.005951	
-0.023956	-0.022430	0.011139	-0.003510	
-0.025482	-0.022430	0.011139	-0.001984	
-0.038301	-0.025482	0.006561	-0.012360	
-0.043794	-0.030975	0.011139	-0.012970	
-0.047761	-0.042573	0.006256	-0.015106	
-0.027313	-0.029449	0.013275	-0.004425	
-0.010223	-0.019684	0.008087	-0.008087	
0.003204	0.005951	0.007172	-0.006256	
0.001984	0.006256	0.004730	-0.013885	
0.007782	0.011749	0.010223	-0.011444	
0.019989	0.016022	0.005951	-0.009308	
0.042268	0.048066	0.010834	-0.000763	
0.040132	0.042573	0.008392	-0.009613	
0.017853	0.020599	0.009308	-0.007172	
0.005035	0.001678	0.009003	-0.004425	
-0.005951	-0.021515	0.009918	-0.002289	
-0.016022	-0.005646	0.005035	-0.005035	
-0.019379	0.012054	0.009003	-0.003510	
-0.027313	0.021210	0.010223	-0.005035	
-0.037385	0.018768	0.004120	-0.009918	
-0.042268	0.021820	0.010529	-0.004425	
-0.031892	0.027313	0.004425	-0.010223	
-0.021515	0.027313	0.009003	-0.005646	
-0.030365	0.009003	0.006256	-0.009003	
0.000153	-0.013580	0.008392	-0.003510	
0.020599	-0.014801	0.002594	-0.007477	
0.033723	-0.009613	0.008698	-0.003510	
0.016327	-0.008392	0.004730	-0.007782	
0.000153	-0.004120	0.009308	-0.003204	
-0.002289	-0.002899	0.012665	-0.003510	
0.001984	-0.001068	0.012665	-0.005341	
0.004425	0.001984	0.010834	-0.005951	
-0.003204	0.004120	0.006256	-0.007477	
-0.012054	-0.011139	0.007172	-0.008392	
-0.007782	-0.019684	0.007172	-0.006866	
0.012970	-0.013580	0.009003	-0.005646	
0.013885	-0.009308	0.001984	-0.013275	
0.012665	0.018158	0.013885	-0.005646	
-0.009003	-0.000153	0.006866	-0.012970	
-0.003815	-0.020905	0.008698	-0.005646	
-0.004425	0.003815	0.007172	-0.009918	
-0.001068	0.021820	0.010223	-0.006256	
-0.018158	0.017242	0.006256	-0.011749	
-0.039521	-0.005035	0.006866	-0.010529	
-0.026398	0.001678	0.007782	-0.010223	
-0.001984	0.018768	0.010834	-0.005035	
0.009003	0.039826	0.010529	-0.006256	
-0.004425	0.031281	0.006866	-0.006256	
-0.009613	0.007172	0.010529	-0.006866	
-0.025482	0.023041	0.010529	-0.005951	
-0.045014	0.020599	0.009003	-0.009308	
-0.063630	0.017242	0.008087	-0.012054	
-0.075227	0.023346	0.014496	-0.007477	
-0.049592	0.024567	0.008392	-0.009308	
-0.005341	0.004730	0.010529	-0.001678	
0.030670	-0.017242	0.004120	-0.007782	
0.069123	-0.009613	0.009308	0.000763	
0.068513	-0.006256	0.008698	-0.002289	
0.050202	-0.009308	0.011139	-0.004425	
0.044099	-0.015106	0.011139	-0.007782	
0.050813	-0.006256	0.009918	-0.007782	
0.051728	-0.000153	0.006256	-0.009308	
0.045320	0.010223	0.008392	-0.003510	
0.009003	0.004730	0.007172	-0.009308	
-0.027008	0.007172	0.009918	-0.007477	
-0.016327	0.006256	0.011749	-0.005951	
-0.011139	-0.001373	0.004120	-0.006866	
-0.010223	0.000153	0.005341	-0.005646	
-0.004425	0.008698	0.003204	-0.007782	
-0.011139	0.006256	0.008392	-0.003510	
-0.023041	-0.014801	0.006256	-0.002899	
-0.031281	-0.023346	0.006866	-0.005951	
-0.037690	-0.009003	0.004425	-0.004120	
-0.039826	0.004730	0.005035	-0.001984	
-0.052033	-0.002289	0.003204	-0.003204	
-0.045930	-0.021210	0.007172	-0.001984	
-0.043794	-0.027313	0.004120	-0.008087	
-0.041047	-0.002289	0.010834	-0.004425	
-0.041963	0.005035	0.009003	-0.011139	
-0.031892	0.010223	0.006561	-0.014191	
-0.021210	0.008698	0.008392	-0.012360	
-0.012360	0.012360	0.005341	-0.012360	
-0.009308	0.012360	0.008087	-0.007782	
-0.001984	0.018158	0.009003	-0.004120	
0.006256	0.018158	0.010529	-0.008087	
0.001068	0.009003	0.005951	-0.009613	
0.022736	0.012054	0.012665	-0.004425	
0.038606	0.019989	0.004730	-0.010223	
0.042268	0.035249	0.012970	-0.000763	
0.028839	0.019379	0.009918	-0.001373	
0.014191	0.006561	0.012970	0.002289	
-0.000763	-0.012970	0.006866	-0.009918	
0.001984	-0.008087	0.011749	-0.003815	
0.001678	-0.009308	0.005951	-0.009613	
0.009613	0.008087	0.010529	-0.004120	
0.006561	0.009003	0.008087	-0.010529	
0.015717	0.018768	0.011139	-0.008087	
0.016632	0.029144	0.012665	-0.008392	
0.008087	0.012054	0.015411	-0.008392	
-0.023041	-0.028534	0.012054	-0.009308	
-0.041047	-0.043794	0.012360	-0.007172	
-0.054170	-0.044404	0.010223	-0.004120	
-0.086518	-0.043489	0.009003	-0.003204	
-0.057527	-0.039521	0.011139	-0.001678	
-0.016937	-0.052644	0.001678	-0.011139	
0.025787	-0.025482	0.006561	-0.005646	
0.031892	-0.032502	-0.001678	-0.009003	
0.019989	-0.034944	0.005341	-0.006866	
-0.019379	-0.037385	0.009918	-0.010529	
-0.029755	-0.027313	0.015411	-0.005951	
-0.024261	0.006561	-0.000763	-0.007477	
-0.018463	0.052339	-0.005341	-0.007782	
-0.027313	0.069428	0.009918	-0.011749	
-0.018158	0.081330	0.027924	-0.000153	
0.009918	0.072480	0.026093	-0.002899	
0.043794	0.068208	0.017853	-0.002289	
0.060884	0.034638	0.004730	-0.009003	
0.090180	0.033113	-0.005646	-0.010223	
0.078279	0.067597	0.012665	-0.006256	
0.039216	0.042573	0.008087	-0.005951	
-0.003204	0.007172	-0.007172	-0.005646	
-0.052339	0.007172	0.005951	-0.005646	
-0.071565	0.030365	0.007782	-0.004120	
-0.057221	0.041963	0.001678	-0.009003	
-0.031281	0.032807	0.006561	-0.002899	
-0.031281	0.007172	0.001984	-0.012054	
-0.029755	-0.005035	0.009918	-0.007782	
-0.034944	-0.025787	0.006866	-0.011139	
-0.029144	-0.038301	0.010529	-0.003204	
-0.029449	-0.050202	0.004730	-0.011139	
-0.005646	-0.049287	0.011139	-0.002289	
0.015106	-0.051423	0.011139	-0.005341	
0.042268	-0.024261	0.013275	-0.005035	
0.057832	-0.005646	0.011749	-0.009918	
0.063325	0.008698	0.013885	-0.012970	
0.040437	0.012970	0.013275	-0.005035	
0.008392	-0.017853	0.012054	-0.009003	
0.019684	-0.019684	0.018768	-0.001984	
0.016327	-0.001068	-0.003815	-0.005646	
0.013275	0.012054	-0.025482	-0.000763	
-0.017548	-0.018463	-0.033113	-0.006866	
-0.036469	-0.012054	0.030670	-0.005035	
-0.060273	0.001678	0.037080	-0.009003	
-0.045930	0.016022	-0.034638	-0.004425	
-0.029755	0.014801	-0.047456	-0.007782	
-0.021820	0.009003	0.002594	-0.007172	
-0.019989	0.000458	0.053254	-0.010223	
-0.009003	0.003204	0.065156	-0.003510	
-0.002289	-0.003815	0.018768	-0.005951	
-0.010834	-0.011444	0.015411	-0.005035	
-0.043489	-0.003510	0.030060	-0.006256	
-0.033723	0.013275	0.019989	-0.007172	
0.010529	0.016327	0.021210	-0.009918	
0.022125	0.016022	0.004425	-0.008392	
0.014191	0.013275	0.009003	-0.004120	
-0.008392	0.008698	0.002899	-0.007172	
-0.005341	0.024872	0.005341	-0.005035	
-0.006256	0.019989	0.006256	-0.003815	
-0.011749	-0.026398	0.008392	0.000153	
-0.030975	-0.040132	0.001068	-0.005646	
-0.056001	-0.041047	0.003815	-0.008392	
-0.049897	-0.017242	0.002594	-0.006866	
-0.026093	0.014191	0.009003	0.000763	
-0.006866	0.019989	0.003815	-0.007477	
0.016937	0.028229	0.008392	-0.005951	
0.033723	0.024567	0.003204	-0.010223	
0.045014	0.023041	0.008087	-0.003510	
0.044404	0.026398	0.009918	-0.003204	
0.027313	0.001678	0.003204	-0.011444	
0.030670	-0.006256	0.015106	-0.004120	
0.029144	-0.019073	0.011139	-0.009003	
0.041047	-0.004120	0.015106	-0.004120	
0.039826	0.012360	0.005035	-0.009613	
0.020294	0.023956	0.006866	-0.007782	
0.000458	0.024872	0.004120	-0.005646	
-0.010834	0.024567	0.007782	-0.005646	
-0.023346	0.018158	0.006256	-0.009613	
-0.023346	0.015106	0.004730	-0.008087	
-0.027618	0.008087	0.003815	-0.009003	
-0.021210	0.015717	0.005341	-0.007782	
-0.022125	0.012665	0.004425	-0.009003	
-0.015411	0.018768	0.005951	-0.004425	
-0.019989	0.006256	0.006866	-0.009308	
-0.017853	0.003815	0.012054	-0.008392	
-0.016022	0.009308	0.011139	-0.007172	
-0.016937	-0.006866	0.006866	-0.006866	
-0.019684	-0.018158	0.011749	0.000153	
-0.023956	-0.032197	0.006256	-0.005341	
-0.026398	-0.028229	0.007172	-0.008087	
-0.026093	-0.025787	0.004425	-0.011444	
-0.016937	-0.016327	0.010834	-0.009003	
-0.029144	-0.016937	0.003204	-0.011139	
-0.020905	-0.012970	0.006256	-0.011444	
-0.027618	-0.049287	0.004120	-0.014496	
-0.033418	-0.066072	0.011139	-0.007172	
-0.019379	-0.036469	0.008698	-0.009308	
0.002899	0.004730	0.010529	-0.007782	
0.013885	0.020294	0.007172	-0.011139	
0.010223	0.036164	0.005951	-0.010529	
-0.002899	0.025177	0.008392	-0.010529	
-0.012054	0.006256	0.006866	-0.012360	
0.002289	0.015106	0.006866	-0.012970	
0.009918	0.021210	0.005341	-0.010223	
0.001984	0.045320	0.010834	-0.004425	
0.000763	0.029144	0.010223	-0.002899	
0.019989	0.011749	0.013885	-0.004120	
0.043794	-0.005341	0.008392	-0.008087	
0.051728	0.011139	0.011139	-0.001678	
0.026398	0.015106	0.002899	-0.005646	
-0.001984	0.037995	0.009003	0.002594	
-0.033418	0.038301	0.006561	-0.003510	
-0.045930	0.037385	0.009003	-0.002899	
-0.063630	0.034333	0.008698	-0.005951	
-0.059968	0.023041	0.009003	-0.006866	
-0.048371	0.000763	0.005951	-0.010529	
-0.023651	-0.002289	0.009308	-0.005951	
0.004730	-0.013885	0.011749	-0.007477	
0.014191	-0.043489	0.022736	-0.007782	
0.016022	-0.045930	0.011139	-0.008087	
0.009003	-0.053559	-0.005951	-0.008392	
0.022125	-0.022125	0.018768	-0.007172	
0.045014	0.017242	0.024261	-0.005951	
0.036775	0.073396	0.012665	-0.007172	
-0.006256	0.087739	-0.007172	-0.009308	
-0.027008	0.067597	0.009308	-0.003510	
-0.025482	0.025177	-0.000153	-0.010223	
-0.011139	0.010223	0.002289	-0.005646	
-0.013580	-0.011139	0.001068	-0.011444	
-0.007782	-0.011139	0.009003	-0.005341	
-0.009613	-0.023651	0.004425	-0.010529	
0.008392	-0.028534	0.012970	-0.005035	
0.022736	-0.042268	0.010529	-0.010223	
0.039216	-0.023041	0.009003	-0.007172	
0.036469	-0.015717	0.008392	-0.007172	
0.014191	-0.013580	0.005035	-0.009613	
-0.004425	-0.003510	0.008392	-0.005646	
-0.009308	-0.001373	0.005341	-0.007477	
-0.012360	-0.004120	0.008698	-0.006256	
-0.017242	-0.010223	0.005951	-0.004425	
-0.010834	-0.003510	0.012970	0.001678	
-0.031892	-0.008392	0.006866	-0.009003	
-0.042268	0.001678	0.009918	-0.005035	
-0.024872	-0.000763	0.011139	-0.002289	
-0.009003	0.001984	0.009003	-0.004120	
-0.003510	0.002289	0.006256	-0.010529	
-0.003815	-0.004120	0.009003	-0.003510	
-0.016022	-0.026093	0.005951	-0.009308	
-0.001373	-0.012360	0.009918	-0.005035	
-0.001068	-0.002899	0.006866	-0.005646	
-0.005341	0.011139	0.009918	-0.001678	
-0.009003	0.016327	0.008698	-0.003510	
-0.018463	0.001068	0.004120	-0.011139	
-0.013885	-0.007172	0.006256	-0.007172	
-0.023041	-0.008087	0.004120	-0.011444	
-0.028839	0.003815	0.009003	-0.009003	
-0.025482	0.013275	0.007782	-0.006866	
-0.008392	0.026093	0.013275	-0.001984	
-0.035859	0.019073	0.006256	-0.011749	
-0.051118	0.017242	0.007172	-0.008392	
-0.012054	-0.001984	0.004730	-0.013885	
0.047151	-0.017548	0.011139	-0.005951	
0.067292	-0.027313	0.006866	-0.011749	
0.068208	-0.015411	0.010529	-0.005341	
0.031281	-0.009003	0.002899	-0.009918	
0.017853	0.014191	0.007782	-0.003204	
0.007782	0.024567	0.005951	-0.007172	
0.006256	0.036164	0.008392	-0.004120	
-0.006866	0.033113	0.009003	-0.005951	
-0.014191	0.030060	0.012665	-0.003815	
-0.021515	0.009918	0.009003	-0.001678	
-0.017242	0.008087	0.008698	-0.001984	
-0.025482	0.028534	0.008392	-0.005951	
-0.055696	0.048066	0.006866	-0.005646	
-0.042268	0.028534	0.011749	-0.003510	
-0.005951	-0.007172	0.008087	-0.011444	
0.029755	-0.011139	0.011139	-0.007477	
0.031281	-0.003815	0.005035	-0.011139	
0.014496	0.001984	0.010529	-0.006256	
-0.011749	-0.007172	0.006561	-0.013580	
-0.028839	-0.005646	0.008392	-0.005951	
-0.037690	-0.008087	0.006866	-0.007782	
-0.029144	-0.006256	0.005341	-0.006866	
-0.013580	-0.012360	0.007782	-0.010223	
-0.003815	-0.017548	0.007172	-0.005951	
0.014191	-0.039826	0.009003	-0.005341	
0.028229	-0.047761	0.006256	-0.008392	
0.037080	-0.003510	0.012054	-0.001984	
0.031892	0.019073	0.002899	-0.006256	
0.023956	0.033113	0.009003	-0.004425	
0.001984	0.030365	0.010223	-0.004425	
-0.015411	0.028839	0.011139	-0.007782	
-0.032197	0.030670	0.005341	-0.009003	
-0.032502	0.026703	0.008698	-0.010529	
-0.032502	0.014191	0.006866	-0.013275	
-0.018463	0.010223	0.013275	-0.004425	
-0.016022	-0.009308	0.005341	-0.013580	
-0.002289	-0.010834	0.011749	-0.004120	
-0.020294	-0.021515	0.005951	-0.006256	
0.000153	-0.017242	0.011139	-0.000153	
0.024872	-0.051728	0.006866	-0.007172	
0.005951	-0.003815	0.008087	-0.005951	
0.005951	0.050813	0.011749	-0.004120	
0.010529	0.056916	0.009918	-0.004120	
0.005035	0.043489	0.011139	-0.006866	
0.007172	0.028534	0.005035	-0.009003	
0.000458	0.009003	0.006256	-0.007172	
-0.020905	-0.017548	0.005341	-0.006866	
-0.036164	-0.044404	0.010223	0.002899	
-0.046235	-0.075532	0.005951	-0.003510	
-0.052033	-0.041963	0.010529	0.003815	
-0.073701	-0.023041	0.008392	-0.005646	
-0.057527	-0.011139	0.012665	-0.004425	
-0.016327	0.012054	0.005341	-0.011749	
0.006256	0.019073	0.007782	-0.006256	
-0.007172	-0.035554	0.005341	-0.014191	
-0.025482	-0.011444	0.012054	-0.005035	
-0.049592	0.024872	0.004730	-0.007172	
-0.043489	0.047151	0.005341	-0.005035	
-0.028229	0.052644	0.006866	-0.008392	
-0.007477	0.047456	0.011139	-0.009613	
0.010223	0.028534	0.017242	-0.005951	
0.018463	0.023346	0.013885	-0.012970	
0.023651	0.026093	0.014496	-0.009613	
0.006256	0.004425	0.006256	-0.006866	
0.012665	0.029755	0.005341	-0.001678	
0.014801	0.036164	-0.006866	-0.007782	
0.005646	0.033418	0.004120	-0.000153	
0.008392	0.015106	0.001984	-0.010529	
0.041963	0.020599	0.001678	-0.001678	
0.053864	0.005646	0.001984	-0.007172	
0.051118	-0.004120	0.018463	-0.000763	
0.034333	-0.019684	0.001678	-0.008087	
0.023651	-0.026398	-0.015717	-0.005341	
0.015106	-0.044404	-0.005646	-0.004120	
0.004730	-0.076142	0.013275	-0.007172	
-0.023651	-0.090486	0.048676	-0.011444	
-0.078584	-0.025787	0.037385	-0.011444	
-0.090486	0.021820	0.004120	-0.002899	
-0.071565	-0.012054	0.004730	-0.009308	
-0.002289	0.000458	0.012054	-0.001984	
0.032502	0.005951	0.003204	-0.009003	
0.019073	0.032502	0.006866	-0.001678	
0.001984	0.033418	0.006561	-0.009003	
0.013275	0.037385	0.019379	-0.003815	
0.027008	0.034638	0.012054	-0.010529	
0.028534	0.025787	0.012360	-0.005341	
0.017853	0.012970	0.003815	-0.010529	
0.018158	0.009308	0.000763	-0.009003	
0.022736	0.002899	-0.000153	-0.005646	
0.035249	-0.005646	0.010529	-0.008392	
0.032502	-0.007172	0.005341	-0.011749	
0.028839	0.002289	0.008087	-0.007782	
0.016632	0.004425	0.014496	-0.007477	
0.000458	0.016022	0.012054	-0.007782	
-0.011139	0.012970	0.015411	-0.005951	
-0.014191	0.005035	0.006256	-0.005646	
-0.016937	0.002289	0.005035	-0.007477	
-0.020294	-0.005035	0.000763	-0.007172	
-0.013275	-0.007172	0.014191	-0.004120	
-0.025482	-0.020294	0.019073	-0.013275	
-0.023041	-0.025482	0.019989	-0.001984	
-0.027924	-0.027313	0.000458	-0.008392	
-0.027618	-0.013580	0.015411	-0.005646	
-0.027618	0.002594	0.015411	-0.007782	
-0.032197	0.016022	0.014496	-0.002899	
-0.053254	0.022736	0.012970	-0.003204	
-0.059358	0.019073	0.010223	-0.003815	
-0.059968	-0.001373	0.006561	-0.009918	
-0.082246	-0.025177	0.006561	-0.005035	
-0.119173	-0.019379	0.002594	-0.009308	
-0.077668	0.005035	0.002594	-0.007782	
0.002289	0.022125	0.004425	-0.005035	
0.058137	0.008698	0.003815	-0.009003	
0.059968	-0.002899	0.014496	-0.005035	
0.029755	-0.013580	0.001068	-0.009003	
0.017853	-0.003510	-0.006866	-0.004425	
0.012360	-0.005646	-0.013885	-0.008392	
0.017853	0.012970	-0.003815	-0.005341	
0.005951	0.023346	0.031281	-0.009003	
-0.004120	0.021820	-0.007172	-0.008087	
-0.019684	0.008392	-0.050508	-0.009003	
-0.005341	0.013275	0.005951	-0.005951	
-0.005951	0.000153	0.024261	-0.013275	
-0.007782	0.012054	0.040132	-0.013580	
0.003204	0.018768	0.024261	-0.007477	
0.022430	0.002289	0.030060	-0.005646	
0.042878	0.000763	0.012665	-0.005341	
0.037995	0.003815	0.008698	-0.012054	
0.019073	0.006256	0.008392	-0.010529	
-0.003815	0.004425	0.008392	-0.009613	
-0.026093	0.008698	0.009918	-0.007172	
-0.051728	0.011749	0.004425	-0.010529	
-0.061189	0.006866	0.006866	-0.005035	
-0.061494	-0.003815	0.004730	-0.007172	
-0.041963	-0.002289	0.009003	-0.003204	
-0.041352	-0.004120	0.004120	-0.009918	
-0.028229	-0.005646	0.007782	-0.001678	
-0.008087	-0.020905	0.007782	-0.003510	
0.008087	-0.016937	0.010223	-0.003204	
0.004425	-0.008087	0.003815	-0.011749	
0.004425	0.003204	0.006561	-0.005951	
0.011139	0.007782	0.009918	-0.003510	
0.012970	0.002899	0.007172	-0.004425	
0.023041	-0.002289	0.007172	-0.006866	
0.056001	-0.001373	0.005341	-0.004425	
0.087129	-0.011749	0.009308	-0.005035	
0.058442	-0.023651	0.006256	-0.008087	
0.010834	-0.005951	0.005951	-0.009003	
-0.031281	0.006256	0.004730	-0.008087	
-0.028839	0.022430	0.012054	-0.001678	
-0.005646	0.012970	0.004120	-0.007782	
0.016632	0.014801	0.009918	-0.004425	
0.007172	0.016022	0.007782	-0.007782	
0.000458	0.021820	0.010529	-0.003204	
-0.016937	0.015106	0.010223	-0.007477	
-0.017242	0.027924	0.013275	-0.004425	
-0.021515	0.010834	0.004730	-0.013580	
-0.016022	0.019073	0.011139	-0.004120	
-0.026093	0.005646	0.009308	-0.010529	
-0.013885	-0.002289	0.006866	-0.011444	
0.006256	0.016632	0.006866	-0.007782	
0.017853	0.033113	0.006256	-0.007477	
0.041047	0.030365	0.009918	-0.005341	
0.038606	0.011749	0.002899	-0.013275	
0.027924	-0.001984	0.012665	-0.009003	
0.021820	-0.012054	0.005035	-0.013580	
0.035859	0.008087	0.010223	-0.009918	
0.010529	0.009918	0.003204	-0.014496	
0.015106	0.010529	0.010529	-0.003510	
0.030670	-0.011749	0.005951	-0.007172	
0.044099	0.009003	0.010529	-0.002899	
0.029144	-0.032502	0.008392	-0.007782	
0.004120	-0.076447	0.012054	-0.000763	
-0.008087	-0.067292	0.009918	-0.007172	
-0.018158	-0.047151	0.011139	-0.006866	
-0.025482	-0.018463	0.014496	-0.005035	
-0.018158	-0.001678	0.016937	-0.003815	
-0.010834	-0.000153	0.010223	-0.001984	
-0.002289	-0.000763	0.001678	-0.007477	
0.013275	0.007782	-0.004425	-0.003510	
0.012054	0.006256	0.009003	-0.005951	
0.019989	0.004730	0.022125	-0.004425	
0.008087	-0.012054	-0.006256	-0.009613	
0.012054	0.008698	-0.001373	-0.007477	
0.019989	0.049287	0.006256	-0.005951	
0.029755	0.092927	-0.001373	-0.005646	
0.018463	0.045930	-0.044099	-0.014191	
0.018463	0.001678	-0.011444	-0.005341	
-0.002899	-0.018463	0.037690	-0.007782	
-0.019073	-0.005646	0.117037	-0.006256	
-0.035859	0.025787	0.103609	-0.009003	
-0.044404	0.047151	0.001678	-0.006256	
-0.052949	0.041047	-0.017548	-0.012360	
-0.045930	0.029144	-0.027924	-0.005951	
-0.041657	0.010223	-0.027008	-0.003204	
-0.030365	0.000458	-0.014496	-0.003510	
-0.013885	-0.007172	-0.009003	-0.005035	
-0.003204	-0.008392	0.010834	-0.013580	
0.008087	0.000153	0.030060	-0.006866	
-0.008392	-0.000763	-0.003510	-0.012054	
0.005646	0.006256	0.010834	-0.000763	
0.026703	0.016632	0.009918	-0.002899	
0.004120	0.018768	0.007172	-0.002899	
-0.050202	-0.017242	-0.003815	-0.008392	
-0.072480	-0.021820	-0.013275	-0.000763	
-0.091096	-0.034028	-0.005646	-0.009003	
-0.085603	-0.028229	0.014496	-0.016022	
-0.079804	-0.020294	0.007172	-0.010529	
-0.073091	-0.004120	0.019989	-0.007782	
-0.064240	-0.018158	0.008698	-0.011444	
-0.069734	-0.032502	-0.039521	-0.009003	
-0.033723	-0.043794	-0.022430	-0.006256	
-0.006256	-0.034333	0.013275	-0.007172	
0.012360	-0.015411	0.017242	-0.005646	
0.023956	0.006256	0.092622	-0.009003	
0.048066	0.028839	0.131990	-0.001678	
0.044404	0.034028	-0.013885	-0.007477	
0.034333	0.040742	-0.073091	-0.009918	
0.010223	0.027313	-0.043183	-0.014191	
0.005646	0.016022	0.010834	-0.006256	
0.009003	-0.002899	0.000153	-0.012970	
0.022736	0.002899	0.004425	-0.005646	
0.019989	0.004120	0.019989	-0.006866	
0.010529	0.013275	0.024567	-0.005035	
-0.001984	0.013885	0.023041	-0.008392	
0.008087	0.012970	0.051423	-0.007477	
0.009613	0.005035	0.025177	-0.009613	
0.006561	0.006561	-0.030365	-0.012054	
0.001678	0.008087	0.003204	-0.009918	
-0.008087	0.005035	-0.005646	-0.007782	
-0.010223	0.005951	-0.062104	-0.006256	
-0.007477	0.004425	-0.219883	-0.007172	
0.000153	0.002289	-0.023041	0.000763	
-0.005646	-0.005951	0.222019	-0.006256	
0.002289	0.004730	0.096285	-0.003510	
-0.000153	0.010223	-0.051728	-0.007172	
-0.016937	0.002289	-0.017853	0.001068	
-0.050508	-0.034333	0.050813	-0.005035	
-0.054170	-0.025482	0.036469	-0.005035	
-0.049897	-0.009918	0.024261	-0.005951	
-0.008392	-0.003510	0.028839	-0.005341	
0.008392	0.002594	0.026398	-0.007477	
0.012054	0.001678	0.017242	-0.001984	
0.000458	0.000153	0.006256	-0.007477	
-0.016937	0.002594	0.005341	-0.004120	
-0.032502	0.000763	0.002594	-0.002289	
-0.055085	-0.017548	-0.003204	-0.010223	
-0.058442	-0.021515	0.007782	-0.008087	
-0.042878	-0.023041	0.014191	-0.008087	
-0.016937	-0.026398	0.004730	-0.009918	
-0.002899	-0.019989	0.006866	-0.011749	
0.007172	0.002594	0.010529	-0.006256	
0.004120	0.014191	0.002594	-0.013275	
0.014191	0.036164	0.006866	-0.007782	
0.008087	0.028229	0.003204	-0.010529	
0.005951	0.018158	0.005341	-0.009003	
0.008392	0.012360	0.005035	-0.006256	
0.016327	0.021820	0.005951	-0.005035	
0.018158	0.019989	0.004425	-0.007172	
0.023041	0.023956	0.007782	-0.003204	
0.009613	0.004730	0.006561	-0.002289	
-0.003815	-0.011749	0.008392	-0.005035	
0.002594	-0.011139	0.024872	-0.003510	
0.000763	-0.018158	0.019379	-0.007477	
0.000763	-0.013885	0.014191	-0.003510	
-0.015717	-0.012054	-0.010223	-0.007477	
-0.019379	0.002289	-0.025482	0.002594	
-0.031892	0.010834	-0.016937	-0.005341	
-0.031587	0.020905	0.016327	-0.003510	
-0.029144	0.020294	-0.011749	-0.001678	
-0.017853	0.017242	-0.025482	-0.002899	
-0.009613	-0.019379	0.021210	-0.007172	
0.007172	-0.032197	0.049592	-0.003510	
0.013275	-0.004120	0.026398	-0.010529	
0.026398	0.039826	0.030975	-0.008087	
0.047761	0.063325	0.052339	-0.009308	
0.045320	0.058747	0.005341	-0.006866	
0.025177	0.044709	0.011139	-0.003510	
0.008392	0.030670	-0.003815	-0.006256	
-0.003204	0.024567	0.007172	-0.005035	
-0.011444	0.016937	0.002594	-0.011444	
-0.023956	0.014496	0.008392	-0.007172	
-0.043183	0.002899	0.001678	-0.014496	
-0.014801	0.003815	0.005951	-0.010529	
0.003204	-0.004120	0.000458	-0.017853	
0.017853	0.012970	0.006561	-0.007782	
0.016327	0.012360	0.005035	-0.011444	
0.026703	0.012360	0.008087	-0.003204	
0.025177	-0.046540	0.003204	-0.009308	
-0.003815	-0.117952	0.004730	-0.003510	
-0.041963	-0.114901	0.004730	-0.005035	
-0.057527	-0.037385	0.006256	-0.005035	
-0.053559	0.027924	0.005341	-0.009003	
-0.028229	0.060273	0.006561	-0.011139	
-0.007477	0.069123	0.010834	-0.009003	
-0.012970	0.062409	0.005035	-0.005951	
-0.025177	0.043489	-0.011139	-0.003204	
-0.031281	0.026093	-0.019073	-0.004425	
-0.031281	0.013275	-0.006256	0.001068	
-0.045625	-0.012054	0.005951	-0.010529	
-0.035859	-0.019073	0.051118	-0.007782	
-0.006256	-0.009918	0.034638	-0.003815	
0.019989	0.016022	-0.016022	-0.000763	
0.025787	0.013885	0.000153	-0.009003	
0.027924	0.018158	0.034638	-0.005951	
0.019073	0.009003	0.025177	-0.009003	
0.015106	-0.000153	0.064546	-0.005646	
0.006866	-0.015106	0.034333	-0.011444	
0.011749	-0.006866	0.014496	-0.009918	
0.010834	-0.004120	0.003204	-0.005646	
0.012665	-0.005646	0.006866	-0.007477	
0.008392	-0.005035	-0.005341	-0.011749	
-0.001678	-0.007172	-0.001678	-0.009308	
0.000763	-0.005646	-0.028229	-0.005646	
0.005646	0.004120	-0.025787	-0.009308	
0.006256	0.010223	0.017853	-0.000763	
-0.001678	0.002899	0.011749	-0.005951	
-0.003815	-0.004120	0.018768	-0.003204	
-0.021210	-0.028534	0.026703	-0.009003	
-0.025787	-0.011139	0.023346	-0.003204	
-0.039216	0.003815	0.009308	-0.013580	
-0.031587	0.020599	0.014191	-0.005035	
-0.026093	0.037995	-0.024261	-0.010223	
-0.016327	0.026398	-0.044709	-0.007782	
-0.001984	-0.000153	-0.042573	-0.006256	
-0.009003	-0.029449	0.015411	-0.005035	
-0.026093	-0.044404	0.073701	-0.005646	
-0.028839	-0.030060	-0.016937	-0.007477	
0.008392	-0.025787	0.047456	-0.009918	
0.044404	-0.015106	0.038606	-0.010223	
0.034028	0.005035	-0.008087	0.000458	
0.013275	-0.001373	-0.010223	-0.003510	
0.006866	-0.001373	-0.096285	-0.003204	
-0.001678	-0.007172	-0.113375	-0.006866	
-0.001984	-0.001373	0.073701	0.002899	
-0.013580	0.011749	0.065461	0.000458	
-0.013275	0.025177	-0.011444	-0.000763	
-0.017548	0.002289	-0.005951	-0.003510	
-0.005035	-0.001984	0.041657	0.002899	
0.003815	-0.023956	0.033418	-0.003510	
0.011749	-0.025787	-0.003815	0.001678	
0.004120	-0.008087	-0.032502	-0.009308	
0.006256	0.018158	0.044404	-0.004425	
0.008698	0.041963	0.147249	-0.004425	
0.009918	0.044099	0.114901	-0.008087	
-0.001068	0.038301	-0.002899	-0.012360	
-0.008392	0.037080	0.016327	-0.012970	
-0.010834	0.039826	0.024872	-0.011749	
-0.017853	0.022125	0.012054	-0.012970	
-0.010223	0.004425	0.008392	-0.015106	
-0.008087	-0.005646	0.001984	-0.017548	
-0.026093	-0.005951	0.003204	-0.010223	
-0.075227	-0.035249	-0.009308	-0.012970	
-0.064240	-0.003815	-0.001373	-0.004425	
-0.042268	0.022125	-0.006866	-0.009918	
-0.019379	0.041352	-0.003815	-0.005646	
-0.029144	0.031892	-0.008392	-0.014191	
-0.019684	0.028229	-0.003204	-0.006256	
0.000153	0.003815	-0.003510	-0.008392	
0.020599	-0.003815	-0.000763	-0.000763	
0.024872	-0.017548	-0.001373	-0.008392	
0.027008	-0.023956	-0.001068	-0.009308	
0.027924	-0.033723	-0.002899	-0.010529	
0.036469	-0.032502	-0.003510	-0.010529	
0.065156	-0.021210	0.002289	-0.009918	
0.078584	0.002594	-0.001678	-0.011444	
0.084077	0.040132	0.007172	-0.005646	
0.055390	0.035249	0.000153	-0.009308	
0.027924	0.011749	0.000763	-0.006256	
0.005646	-0.009918	-0.003204	-0.012360	
-0.007782	0.004730	0.005951	-0.005035	
-0.033723	-0.003510	0.003204	-0.011444	
-0.041047	-0.010834	0.009003	-0.006256	
-0.063630	-0.017242	0.008392	-0.010223	
-0.080415	0.001068	0.007782	-0.000153	
-0.074006	0.001678	0.001984	-0.005951	
-0.044099	-0.035554	0.014191	-0.007782	
-0.031892	-0.084382	0.008698	-0.010529	
-0.004425	-0.085603	0.010529	-0.001984	
-0.003815	-0.049897	0.032807	0.002594	
-0.023651	-0.017242	0.031587	-0.001984	
-0.047761	0.014191	-0.011444	-0.007172	
-0.060273	0.041047	-0.039826	-0.007782	
-0.045014	0.065156	0.036469	0.000763	
-0.023346	0.068513	0.037080	-0.000763	
0.008698	0.048982	-0.027313	-0.006256	
0.026398	0.043489	-0.023651	-0.007782	
0.026703	0.028229	0.048371	-0.005035	
0.022430	-0.027008	0.030975	-0.012970	
0.039826	-0.019073	-0.022430	-0.009003	
0.019684	0.007782	-0.018158	-0.010529	
-0.001678	0.044099	0.005341	-0.007782	
-0.034028	0.036164	0.006561	-0.010529	
-0.044099	0.010223	0.005951	-0.008392	
-0.017548	-0.009613	0.012665	-0.009613	
0.017853	0.000458	0.020599	-0.004425	
0.023956	0.009003	0.012054	-0.010223	
0.024261	0.034638	0.003204	-0.009003	
0.023041	0.060578	0.006256	-0.004120	
0.017853	-0.042268	0.008698	-0.009918	
-0.003204	-0.250095	0.026093	-0.006866	
0.002289	-0.207065	0.016937	-0.007477	
-0.012360	-0.074006	0.004425	-0.002899	
-0.073091	0.028229	-0.004120	-0.008392	
-0.086518	0.094759	-0.001068	0.002289	
-0.077668	0.101778	0.003204	-0.005951	
-0.023956	0.116732	0.042573	0.001068	
0.009613	0.115206	0.012970	-0.007782	
0.019684	0.102388	0.016327	-0.008392	
0.005035	0.079194	0.018768	-0.006866	
0.006866	0.045320	-0.005341	-0.005951	
0.027008	0.002899	0.003204	-0.009918	
0.060884	-0.001373	0.038606	-0.011139	
0.101168	0.019073	0.073091	-0.009918	
0.105440	0.046235	0.030670	-0.005035	
0.051118	0.052339	-0.015411	-0.010223	
0.008392	0.041352	-0.009918	-0.008392	
-0.031281	0.022430	0.034028	-0.004120	
-0.060273	-0.001984	0.016937	-0.013885	
-0.043183	-0.009003	-0.055696	-0.005035	
-0.039521	-0.025177	-0.042573	-0.008392	
-0.030060	-0.030975	-0.047456	-0.009003	
-0.025482	-0.037080	-0.053559	-0.010529	
-0.018158	-0.034028	0.043183	-0.005951	
-0.010223	-0.038606	0.146029	-0.009308	
0.014496	-0.035554	0.057832	-0.007172	
0.028229	-0.038606	-0.057832	-0.010223	
0.040742	-0.035554	-0.046845	-0.005035	
0.039216	-0.036469	0.017853	-0.006256	
0.033113	-0.037690	0.075227	-0.009003	
0.014801	-0.021515	-0.023956	-0.012054	
-0.004425	0.013885	-0.052033	-0.005951	
-0.029755	0.037385	0.052949	-0.003204	
-0.032197	0.017242	0.111849	-0.004120	
-0.053559	-0.006866	-0.050202	-0.002899	
-0.086518	-0.019989	-0.058747	-0.003510	
-0.100252	-0.007782	0.023041	0.005035	
-0.135347	-0.019684	0.005341	-0.009003	
-0.129854	-0.022430	-0.040437	-0.005646	
-0.096590	-0.041047	0.021210	-0.007782	
-0.031281	-0.039521	0.001068	-0.005951	
0.016937	-0.023956	-0.020599	-0.009003	
0.053864	0.000153	-0.052644	-0.005646	
0.063935	0.014801	0.009003	-0.010223	
0.056916	0.017242	0.076753	-0.012054	
0.065766	0.019073	-0.006866	-0.007782	
0.076447	0.021820	0.050508	-0.009003	
0.070954	0.038911	0.180209	-0.004425	
0.040132	0.070649	0.070039	-0.009308	
0.023956	0.054780	-0.223850	-0.005646	
-0.009918	-0.005646	-0.158542	0.000763	
0.006256	-0.020905	0.295873	0.010223	
0.030060	-0.016022	0.236973	-0.009003	
0.048676	0.006256	0.022430	-0.008392	
0.032197	0.016632	0.013885	-0.006866	
0.010223	0.027008	-0.055390	-0.002289	
-0.013580	0.028229	-0.119478	-0.003510	
-0.028229	0.028839	-0.107882	0.005951	
-0.049287	0.011749	-0.078279	-0.001678	
-0.053864	0.016632	0.014801	-0.001984	
-0.050202	0.007172	0.026398	-0.009613	
-0.035859	0.000153	0.047761	-0.008392	
-0.010834	0.014191	0.044404	-0.006866	
0.002594	-0.012054	0.009308	-0.011444	
0.001068	-0.063935	-0.020294	-0.012970	
-0.008392	-0.038606	-0.037690	-0.010529	
-0.021515	0.016632	-0.042573	-0.011749	
-0.059968	0.026398	-0.019989	-0.010223	
-0.072480	0.028534	0.100252	-0.005035	
-0.077363	0.006256	0.135653	-0.017548	
-0.037385	0.007172	-0.025482	-0.009308	
-0.012970	-0.005646	-0.035249	-0.014496	
-0.001068	-0.004120	0.016327	-0.011444	
-0.005035	-0.013885	-0.000153	-0.011139	
-0.009918	-0.024261	-0.007477	-0.008392	
-0.001984	-0.045014	-0.021515	-0.008392	
0.030060	-0.031587	-0.008392	-0.006256	
0.052033	-0.009003	0.012665	-0.008087	
0.071870	0.024872	0.053559	-0.004425	
0.078584	0.028229	0.049287	-0.004425	
0.061799	0.020599	-0.050202	-0.001373	
0.058442	0.000458	-0.040132	-0.003510	
0.029144	-0.044404	0.061494	-0.009003	
-0.006866	-0.045320	0.063325	-0.000153	
-0.058137	-0.021820	-0.011139	-0.003204	
-0.089265	-0.005341	-0.029449	-0.001678	
-0.075227	0.019073	-0.017548	-0.003510	
-0.051423	0.047456	-0.007172	-0.001984	
-0.040132	0.046540	0.005035	-0.011444	
-0.028839	0.048066	0.012665	-0.007477	
-0.033113	0.034638	0.012970	-0.011444	
-0.023956	0.027008	0.015411	-0.007172	
-0.016327	0.008087	0.006256	-0.010529	
0.006866	0.005035	0.009003	-0.012054	
0.019073	-0.006256	0.003204	-0.017242	
0.028534	-0.001373	0.009308	-0.008087	
0.020599	0.006561	0.013275	-0.009308	
0.015106	0.011139	0.004425	-0.014191	
0.013275	0.010834	0.009918	-0.008087	
0.001984	0.003204	0.009003	-0.006256	
-0.005341	0.000763	0.007782	-0.004425	
-0.009003	-0.001373	0.004730	-0.009308	
-0.002899	-0.001373	0.009918	-0.001984	
-0.005646	-0.004120	0.009003	-0.003815	
-0.000153	-0.001373	0.010529	0.000763	
-0.002899	-0.005341	0.009003	-0.002899	
-0.001068	-0.004120	0.010529	-0.003204	
0.005646	-0.001373	0.013275	-0.007172	
0.011749	0.006256	0.014496	-0.002899	
0.000153	-0.003815	0.005035	-0.017548	
0.011139	0.004425	0.010529	-0.007477	
0.014191	-0.007172	0.006256	-0.011444	
0.012665	-0.034028	0.009003	-0.009308	
-0.002289	-0.063325	0.010223	-0.005951	
-0.009003	-0.072785	0.004730	-0.007782	
-0.008087	-0.034028	0.001984	-0.001984	
-0.001984	0.018768	0.006866	-0.002899	
-0.011749	0.052949	0.017242	-0.010223	
-0.016937	0.071565	0.016327	-0.008392	
-0.019684	0.077058	-0.005341	-0.003510	
-0.031281	0.062104	0.010223	-0.005035	
-0.037995	0.044709	0.014801	-0.001678	
-0.046235	0.022430	0.016937	-0.009003	
-0.041352	0.008392	0.026093	-0.009003	
-0.035249	-0.001984	0.014496	-0.013275	
-0.016937	-0.003204	0.005951	-0.010223	
-0.005341	-0.005035	-0.007477	-0.009003	
0.012360	0.005951	0.016632	-0.007172	
0.018463	0.012360	0.014191	-0.006866	
0.024872	0.005951	0.005951	-0.006866	
0.028534	0.002594	0.000458	-0.011749	
0.032502	-0.009613	-0.010223	-0.006866	
0.036469	-0.011139	-0.018463	-0.005341	
0.004730	-0.012054	-0.025482	-0.010529	
-0.027008	-0.012054	0.038911	-0.002899	
-0.049592	-0.012970	0.044709	0.000153	
-0.035554	0.007172	-0.012360	0.000458	
-0.009308	0.032197	0.001678	-0.000763	
-0.046235	0.046540	-0.000153	0.002289	
-0.035859	0.021820	0.016327	-0.004425	
0.013885	-0.019684	0.070039	-0.003204	
0.046845	-0.026398	0.026093	-0.005035	
0.046540	-0.047456	0.012665	-0.003510	
0.018463	-0.068208	0.005341	-0.008392	
-0.015411	-0.044404	-0.021820	-0.010529	
-0.040132	-0.026398	0.012970	-0.012054	
-0.035554	-0.000763	0.056611	-0.004120	
-0.032197	0.011139	0.016022	-0.007477	
-0.030975	0.016937	-0.018463	-0.013275	
-0.030975	0.009003	0.057221	-0.002899	
-0.029449	-0.011749	0.048982	-0.009003	
0.009918	-0.013580	-0.009613	-0.008087	
0.054475	0.009308	-0.027313	-0.005951	
0.072785	0.034333	-0.019989	-0.011139	
0.063020	0.049897	-0.040437	-0.011749	
0.038911	0.052033	-0.067903	-0.008392	
0.001068	0.031892	-0.071565	-0.011749	
-0.021210	0.023346	0.028839	-0.007782	
-0.030365	0.019073	0.127108	-0.008392	
0.009918	0.034333	0.072480	0.000763	
0.056001	-0.014191	-0.048371	-0.009918	
0.067903	-0.042268	-0.054475	-0.006256	
-0.002899	-0.072785	-0.031892	-0.008087	
-0.074311	-0.081941	0.074922	-0.007172	
-0.071565	-0.022125	0.068818	-0.010223	
-0.047151	0.030365	-0.082551	-0.010223	
-0.021210	0.067597	-0.131380	-0.008087	
-0.021210	0.066377	0.005951	-0.006866	
-0.035859	0.028229	0.209201	-0.009003	
-0.035249	-0.006256	0.252537	-0.001373	
-0.050202	-0.015106	-0.138399	0.000153	
-0.082246	-0.011444	-0.162509	-0.001373	
-0.052033	0.011139	-0.043183	-0.007172	
0.002899	0.013275	0.023346	-0.012970	
0.061799	0.027008	0.099337	-0.005035	
0.086213	0.022736	0.139620	-0.011444	
0.073091	0.040437	0.082551	-0.001373	
0.032197	0.039216	-0.016022	-0.003204	
0.010529	0.042573	-0.081635	0.005951	
-0.010834	0.013275	-0.033418	-0.003510	
-0.016937	0.001984	0.021210	-0.003510	
-0.016937	0.002594	0.114901	-0.001984	
-0.004425	-0.002289	0.082551	-0.001678	
0.013275	0.003204	0.022125	-0.004425	
0.018463	0.001984	-0.138704	-0.007172	
0.026703	0.001984	-0.072175	-0.005646	
0.032807	-0.009613	0.079499	-0.011749	
0.023041	0.014496	-0.015717	-0.006256	
-0.017548	-0.019989	0.037385	-0.013275	
-0.023956	-0.038301	0.075837	-0.003510	
-0.048371	-0.070039	-0.019989	-0.009918	
-0.049592	-0.061799	-0.050813	0.000153	
-0.071259	-0.026093	0.023041	-0.008392	
-0.079499	0.012360	0.054475	-0.007172	
-0.066377	0.028839	0.057221	-0.015106	
-0.032502	0.018768	-0.002899	-0.009918	
-0.026398	0.002899	-0.013580	-0.010529	
-0.035249	-0.023651	-0.082856	-0.009918	
-0.034028	-0.047151	-0.084077	-0.007172	
-0.019073	-0.044404	-0.076142	-0.009308	
0.006256	-0.039826	-0.035554	-0.009003	
0.033723	-0.007172	0.077363	-0.001984	
0.050202	0.017242	0.097506	0.000458	
0.044404	0.030975	0.078889	-0.007172	
0.036469	0.046540	0.060578	0.004120	
0.012665	0.035249	-0.070649	-0.012054	
0.008087	0.038911	0.002899	-0.006256	
-0.005341	0.016632	0.019989	-0.011444	
0.006256	0.016632	0.005951	-0.007172	
0.010834	0.010834	-0.055696	-0.009003	
0.020905	0.005035	-0.063020	-0.008392	
0.026398	0.005951	0.016632	-0.009613	
0.015106	0.008392	0.024261	-0.005951	
0.005951	0.012970	0.103914	-0.001373	
0.002289	0.014191	0.070039	-0.001068	
-0.003815	0.007782	0.129854	-0.009003	
-0.008392	-0.002289	0.066377	-0.011749	
-0.012054	-0.007172	0.001678	-0.009308	
-0.026093	-0.003815	-0.088349	-0.010529	
-0.019989	0.010529	-0.123140	-0.001678	
-0.033418	0.006256	-0.021820	-0.009918	
-0.035554	0.008698	0.002899	-0.008392	
-0.029449	0.002289	0.002899	-0.015411	
-0.013885	-0.001068	0.001068	-0.011749	
-0.005341	-0.005035	0.018768	-0.013580	
0.004730	-0.012054	0.011749	-0.006256	
0.000763	-0.023651	0.005341	-0.011749	
0.002899	-0.021210	0.008698	-0.003510	
-0.001678	-0.023651	0.001678	-0.005035	
0.010529	-0.014191	-0.041963	-0.007172	
0.011139	-0.010834	-0.073701	-0.009918	
0.016937	0.001984	-0.030365	-0.003204	
0.010529	-0.001373	0.091706	-0.003815	
0.004120	0.002594	0.092011	-0.005646	
0.000458	0.018158	0.019073	-0.008087	
-0.006256	0.024872	0.016327	-0.009918	
-0.002289	0.020294	-0.074922	-0.007172	
-0.015106	0.013885	-0.059968	-0.008392	
-0.057832	0.014496	0.110018	-0.000763	
-0.077058	-0.022430	0.192416	-0.005646	
-0.051423	-0.048676	0.022125	-0.000763	
-0.021210	-0.038606	0.038606	-0.011139	
0.007782	0.014191	0.025482	-0.001068	
0.008087	0.059052	-0.034638	-0.001984	
-0.005035	0.074006	-0.060273	-0.003815	
-0.023956	0.060578	-0.063630	-0.003204	
-0.015411	0.042573	0.021515	0.000763	
-0.007477	0.014801	0.000458	-0.005951	
-0.004120	-0.011139	0.020599	-0.009003	
-0.001068	-0.028229	0.046540	-0.008087	
0.003815	-0.031587	0.012665	-0.012054	
0.034638	-0.009003	-0.001678	-0.008392	
0.047151	0.010223	-0.009003	-0.012970	
0.045014	0.030670	0.001678	-0.010529	
0.027924	0.027008	-0.000153	-0.014191	
0.020599	0.029144	-0.004120	-0.005951	
0.014191	0.016937	-0.005951	-0.011749	
0.023956	0.020294	0.028534	-0.009613	
0.017853	0.019073	0.067292	-0.016022	
0.012054	0.018768	0.074922	-0.008392	
0.001678	-0.005341	0.063630	-0.009918	
0.011139	-0.007782	-0.003815	-0.008392	
0.037995	-0.009613	-0.172885	-0.007782	
0.029144	-0.019073	-0.092317	-0.003510	
-0.033418	-0.041047	-0.026093	-0.009918	
-0.066377	-0.060273	0.038911	-0.007782	
-0.077363	-0.022125	0.129854	-0.001984	
-0.108187	0.002594	-0.072785	-0.001984	
-0.140535	0.018768	-0.056001	-0.004120	
-0.129549	0.017242	0.042573	-0.003204	
-0.069734	-0.004425	0.079804	0.003204	
0.010834	-0.014801	0.026093	-0.011139	
0.039826	0.006866	0.013275	-0.006256	
0.017853	0.017242	-0.008087	-0.005951	
0.004120	0.014496	-0.016022	-0.002899	
-0.011139	-0.005646	-0.015411	-0.009003	
0.000153	0.005646	0.078889	-0.004120	
0.004120	0.004730	0.085908	-0.009308	
0.010529	0.003204	-0.006866	-0.005035	
0.009918	-0.014191	-0.012054	-0.010529	
0.027313	-0.017242	-0.046235	-0.009308	
0.046235	-0.009308	-0.031892	-0.005951	
0.051118	0.006561	0.030670	-0.007477	
0.045014	0.009003	0.043489	-0.002899	
0.037995	0.009003	0.023041	0.000153	
0.027008	0.008698	0.016632	-0.004120	
0.015717	0.006866	-0.040437	-0.007477	
0.002594	0.016022	-0.027313	-0.001678	
-0.011139	0.012360	0.091096	-0.011749	
-0.003510	0.014496	0.038606	-0.004425	
0.005035	-0.015411	-0.072785	-0.008392	
0.015717	-0.027313	-0.020294	-0.002899	
0.027313	-0.044099	0.047761	-0.007782	
0.009003	-0.116426	0.056611	-0.003510	
-0.025787	-0.238804	0.027924	-0.008392	
-0.069428	-0.170444	0.016937	-0.006256	
-0.143587	-0.045320	-0.031892	-0.011139	
-0.167392	0.080720	-0.015411	-0.007172	
-0.175632	0.159457	-0.015411	-0.009308	
-0.135958	0.175021	-0.010223	-0.007782	
-0.056306	0.163730	0.062409	-0.008392	
0.025787	0.146944	0.067903	-0.008392	
0.066987	0.125277	0.030060	-0.010223	
0.081025	0.091096	0.019989	-0.008392	
0.078889	0.054780	0.009003	-0.009003	
0.087434	0.021820	-0.061799	-0.007172	
0.114901	0.011139	-0.127413	0.002899	
0.123446	0.006866	-0.113985	-0.009918	
0.124361	0.025787	0.076753	-0.007782	
0.092622	0.027313	0.117952	-0.013275	
0.064240	0.037385	0.045625	-0.003510	
0.020599	0.010529	0.012665	-0.010529	
0.006256	-0.005341	-0.013885	-0.003510	
0.002289	-0.023041	0.146029	-0.009308	
-0.011444	-0.030975	0.193332	-0.010529	
-0.031281	-0.039521	0.065156	-0.009003	
-0.039826	-0.067597	-0.183566	-0.013275	
-0.037690	-0.071259	-0.238499	-0.013275	
-0.040132	-0.049592	-0.238804	-0.014496	
-0.050508	-0.025177	0.016937	0.002594	
-0.071259	-0.022430	0.196383	0.004730	
-0.078584	-0.014191	0.072480	-0.002899	
-0.082551	-0.035859	0.075532	-0.013885	
-0.055085	-0.029449	0.043183	0.002899	
-0.063630	-0.035249	0.062409	-0.003510	
-0.028229	-0.034028	-0.009918	-0.000153	
-0.003815	-0.028534	0.064546	-0.005035	
-0.000153	-0.012360	0.086213	-0.009308	
-0.008087	-0.009613	0.021515	-0.011749	
-0.025482	0.002899	-0.054780	-0.006256	
-0.026093	0.005646	-0.062104	-0.010529	
-0.016937	0.021210	0.123140	-0.006256	
-0.012970	0.023346	-0.031281	-0.010223	
-0.013275	0.029755	-0.119173	-0.007172	
-0.009308	0.034028	-0.013885	-0.007477	
-0.003510	0.030670	0.034944	-0.007172	
0.018463	0.018768	0.034638	-0.004120	
0.030975	0.001984	-0.023346	-0.007477	
0.038301	0.000763	-0.011139	-0.007477	
0.037995	-0.008392	0.002594	-0.008392	
0.025177	-0.006866	0.000153	-0.007477	
-0.002289	-0.007782	-0.015717	-0.012054	
-0.005035	-0.005341	0.023041	-0.001984	
-0.015411	-0.012970	0.023346	-0.007172	
-0.005646	-0.004120	0.014496	-0.001678	
0.005646	-0.006866	0.001068	-0.007782	
0.030670	0.000763	-0.012970	-0.001068	
0.036469	-0.007782	-0.009308	-0.003204	
0.015717	-0.020905	-0.006866	-0.011139	
-0.001373	0.001678	0.000458	-0.006256	
-0.025787	0.002289	-0.005951	-0.009308	
-0.036164	-0.000763	-0.019989	-0.010223	
-0.047151	0.003204	0.018768	-0.010529	
-0.033113	0.030975	0.037080	-0.008392	
-0.007477	0.043183	-0.024567	-0.011749	
0.004120	0.042878	0.004425	-0.007782	
-0.015411	0.022430	0.053559	-0.009918	
-0.035249	0.002289	-0.012054	-0.001068	
-0.028229	-0.021515	0.047456	-0.010529	
0.020905	-0.011444	0.073396	-0.002899	
0.025787	-0.009003	-0.052644	-0.001678	
0.004730	0.003815	-0.049287	0.001678	
-0.004425	0.025177	0.058747	-0.002899	
-0.013275	0.034638	0.045014	0.001678	
-0.044099	0.005646	0.004730	-0.009308	
-0.045320	0.002594	0.006256	-0.006256	
-0.041047	0.006561	0.042878	-0.009613	
-0.009308	0.014496	0.030365	-0.011139	
0.040742	0.016937	0.050813	-0.007172	
0.037080	0.019379	0.051423	-0.007172	
0.022736	0.029144	-0.020599	-0.006866	
-0.009613	0.009308	-0.079804	-0.007172	
-0.034028	-0.037690	-0.186313	-0.003204	
-0.028229	-0.057832	-0.169223	-0.011139	
-0.009613	-0.036469	-0.070344	-0.005341	
0.002594	-0.011749	0.155489	-0.003204	
0.001984	0.010834	0.150606	-0.000763	
-0.012360	0.012360	0.135347	-0.009003	
0.000763	0.025177	0.039216	-0.001984	
-0.001068	0.017853	0.060884	-0.007172	
-0.003815	0.016022	0.090180	-0.003510	
-0.008392	0.004425	-0.037690	-0.010529	
0.001068	-0.001984	-0.001984	-0.005951	
0.008087	-0.005646	0.077363	-0.003204	
0.016937	0.003815	0.074616	-0.006256	
0.014496	0.009003	0.001984	-0.009918	
0.008087	0.020294	0.002289	-0.006256	
-0.002899	0.026703	-0.024567	-0.007782	
-0.028229	0.010834	-0.053559	-0.013275	
-0.052949	0.014496	-0.036775	-0.004425	
-0.025482	0.009308	-0.005646	-0.012054	
0.040132	0.020905	0.015411	-0.002289	
0.040132	0.010223	-0.016937	-0.014496	
0.033113	-0.015106	-0.001678	-0.009308	
0.011749	-0.051118	0.006866	-0.010529	
-0.002899	-0.035859	0.010529	-0.005951	
-0.021210	-0.009613	0.005035	-0.012360	
-0.023346	-0.001373	0.000458	-0.007477	
-0.025482	-0.028229	0.001984	-0.011444	
-0.048371	-0.034333	0.012970	-0.007172	
-0.062409	-0.009918	0.010223	-0.003510	
-0.061494	-0.010834	-0.000153	-0.002899	
-0.039826	-0.009613	-0.038301	-0.009003	
-0.017548	0.037995	-0.047761	-0.010223	
-0.004425	0.086518	0.106966	-0.001984	
-0.005646	0.100863	0.001068	-0.002289	
-0.002289	0.092317	-0.065766	-0.002899	
0.020905	0.042573	0.062409	-0.013580	
0.084077	0.006561	0.064851	-0.006866	
0.115206	0.008087	0.045014	-0.002899	
0.118563	0.010223	0.001984	0.001068	
0.090180	-0.008392	-0.175632	-0.008392	
0.066072	-0.011749	-0.107271	-0.003204	
0.048066	-0.011139	0.047761	-0.007172	
0.036469	-0.007172	0.153963	-0.000153	
-0.012054	-0.022430	0.070954	-0.009003	
-0.051118	-0.022125	0.030060	-0.006866	
-0.089875	-0.013885	-0.068208	-0.001678	
-0.083161	-0.009003	-0.063935	-0.004120	
-0.045625	0.001984	-0.042268	-0.005035	
-0.027008	-0.005646	0.097506	-0.003204	
-0.026398	-0.007782	0.119783	-0.004425	
-0.043183	-0.015106	0.013885	-0.012054	
-0.032502	-0.009918	0.044404	-0.002899	
-0.035249	-0.041047	0.076447	-0.003204	
-0.033723	-0.056001	-0.021515	-0.001678	
-0.024872	-0.062715	-0.019989	-0.012360	
-0.003815	-0.026093	-0.021515	-0.001984	
-0.011749	-0.006866	-0.055696	-0.007172	
-0.023956	0.016327	-0.066072	-0.009308	
-0.046540	0.031281	0.052949	-0.008392	
-0.055696	0.003204	0.104219	-0.004425	
-0.053864	-0.027008	0.004730	-0.011444	
-0.030975	0.010834	0.040437	-0.005646	
-0.008392	0.018768	0.012665	-0.002899	
0.006866	0.018768	0.025482	-0.004425	
0.024261	0.018158	-0.110628	-0.007172	
0.030365	0.032197	-0.172885	-0.010529	
0.025177	0.064851	0.048676	-0.004120	
0.019989	0.082246	0.146639	-0.011444	
0.045014	0.099337	0.084687	-0.009003	
-0.022125	0.117342	0.089570	-0.010223	
-0.095980	0.020599	0.038911	-0.014496	
-0.040437	-0.058137	0.016632	-0.019989	
0.062409	-0.041047	0.002899	-0.009918	
0.108187	-0.024872	-0.043183	-0.005951	
0.084077	0.002899	-0.059663	-0.001984	
0.024872	0.014191	-0.041963	-0.011139	
-0.005341	0.017242	0.023041	-0.005341	
-0.022125	0.000763	0.064546	-0.009003	
-0.003204	-0.012054	0.001984	-0.007172	
-0.016937	-0.014801	0.018158	-0.003510	
-0.038911	-0.015717	0.031587	-0.005035	
-0.052949	-0.011139	0.036164	-0.006256	
-0.042878	-0.048066	0.020294	-0.009308	
0.018768	-0.045320	0.006561	-0.003815	
0.059358	-0.011444	-0.023956	-0.009308	
0.047761	0.023041	-0.001068	-0.003204	
-0.004425	0.016022	-0.035554	-0.012970	
-0.028839	0.017242	-0.041352	-0.008087	
-0.042878	-0.001373	-0.023346	-0.015717	
-0.030975	-0.002899	-0.002289	-0.007172	
-0.041047	-0.023956	-0.001678	-0.012970	
-0.045014	-0.047151	0.019989	-0.011749	
-0.050508	-0.039826	0.030060	-0.010529	
-0.019379	0.004730	0.034333	-0.002899	
0.002899	0.014191	0.041657	-0.008392	
0.019073	0.007172	-0.011749	-0.005951	
0.024872	0.023041	-0.046235	-0.000153	
0.014191	0.021820	-0.007172	-0.000153	
0.000458	0.015717	-0.003510	-0.005646	
-0.011139	0.001068	-0.062715	-0.007172	
-0.007172	-0.003815	-0.026398	0.002594	
-0.017242	-0.015717	0.045625	-0.009613	
-0.021820	-0.027618	0.043183	0.000153	
-0.049592	-0.080720	0.021515	-0.008087	
-0.060578	-0.061799	0.063020	-0.000763	
-0.067292	-0.038606	0.019073	-0.011139	
-0.012360	0.010223	0.078889	-0.005646	
0.024872	0.038911	0.030060	-0.011444	
0.043794	0.066987	0.017242	-0.008087	
0.036775	0.076447	-0.035249	-0.016022	
0.019684	0.072480	-0.118868	-0.006866	
-0.010223	0.064240	-0.066987	-0.002899	
-0.027008	0.052339	-0.038301	-0.004425	
-0.019684	0.037385	0.075532	-0.004425	
0.009918	0.014496	0.055085	-0.010529	
0.031892	-0.009308	0.055390	-0.006866	
0.054780	-0.026398	0.038911	-0.011444	
0.062104	-0.020294	0.046235	-0.011139	
0.048066	-0.005951	0.001068	-0.012054	
0.042268	0.003815	-0.043489	-0.010529	
0.039216	-0.010223	-0.013580	-0.011444	
0.043794	-0.006866	-0.003510	-0.013580	
0.020599	0.004730	-0.078584	-0.013580	
-0.004120	0.016632	-0.034028	-0.011444	
-0.028839	0.017242	0.063325	-0.012360	
-0.048066	0.007172	-0.005646	-0.005646	
-0.058442	-0.034944	-0.086213	-0.006866	
-0.053559	-0.033113	0.083467	-0.004120	
-0.052033	-0.012970	0.062715	-0.010223	
-0.039216	0.004425	0.101778	-0.006866	
-0.026093	0.023346	0.077363	-0.008392	
-0.027008	0.015106	0.122530	-0.007477	
-0.023956	-0.007477	-0.032502	0.001678	
-0.042268	-0.034028	-0.005951	-0.003510	
-0.059968	-0.036469	-0.087739	-0.001678	
-0.039521	-0.041657	-0.064240	-0.001984	
0.009003	-0.025177	0.041352	0.001068	
0.046845	0.003815	0.102999	-0.004425	
0.058137	0.049287	-0.012360	-0.000763	
0.031281	0.081635	-0.006256	-0.005646	
0.040437	0.084382	0.077668	-0.001373	
0.016022	0.003204	0.073701	-0.004425	
-0.006256	-0.051728	0.045625	0.001068	
-0.031281	-0.098421	-0.024567	-0.004120	
-0.041352	-0.075227	-0.064851	-0.003815	
-0.029755	-0.031281	-0.060884	-0.005951	
-0.012970	-0.001068	-0.064240	-0.011749	
-0.001984	0.045320	0.067903	-0.007782	
0.004120	0.075532	0.052339	-0.009003	
0.013885	0.099642	-0.034638	-0.011749	
0.013275	0.077668	-0.011749	-0.010529	
-0.002899	0.046845	-0.016937	-0.005035	
-0.041047	0.031892	0.016937	-0.003204	
-0.047456	0.017242	0.068818	0.000763	
-0.047761	-0.001984	0.137484	-0.009613	
-0.037690	0.003815	0.127108	-0.001984	
-0.021210	-0.014801	-0.034638	-0.016327	
0.012665	-0.038301	-0.074616	-0.010529	
0.008392	-0.043794	-0.004425	-0.006256	
-0.019379	-0.031587	-0.009613	-0.000763	
-0.055696	-0.009308	-0.123446	-0.005035	
-0.062104	0.012970	-0.037690	-0.001678	
-0.052339	0.016022	0.062409	-0.004425	
0.009613	0.005035	-0.009613	-0.011444	
0.085298	0.007172	-0.092011	-0.010223	
0.111238	0.019379	-0.004425	-0.012360	
0.108797	0.024567	0.041352	-0.011444	
0.105440	-0.000763	-0.003815	-0.014496	
0.055085	-0.045625	0.026398	-0.011139	
0.006866	-0.069734	0.034638	-0.007477	
-0.008087	-0.044099	0.002289	-0.002289	
-0.045014	-0.029144	-0.051423	-0.011139	
-0.070039	0.000763	0.005951	-0.005035	
-0.081025	0.010223	0.003815	-0.009003	
-0.065156	0.028229	-0.002899	-0.005951	
-0.052033	0.027008	-0.002899	-0.013275	
-0.034028	0.024567	0.010834	-0.009003	
-0.034944	0.021820	0.034333	-0.005646	
-0.038301	0.011749	0.042878	-0.004425	
-0.029144	0.006256	0.032197	-0.009308	
0.005951	0.011749	0.034028	-0.011444	
0.045014	0.019379	-0.016937	-0.005951	
0.052644	0.014801	-0.030060	-0.009308	
0.027008	0.036775	0.024261	-0.007477	
-0.000153	0.048371	0.034944	-0.007172	
-0.044099	-0.009613	0.016937	-0.001984	
-0.048982	-0.090486	0.046540	-0.006256	
0.040742	-0.069428	0.033113	-0.000763	
0.059968	-0.026398	-0.005951	-0.006256	
0.015717	0.030670	-0.068513	-0.002899	
-0.027008	0.059968	0.032197	0.001068	
-0.034333	0.068513	0.078889	0.004120	
-0.025787	0.059052	-0.006256	-0.001373	
-0.022430	0.036469	0.047151	0.000153	
-0.031587	0.000763	0.051423	-0.009918	
-0.032502	-0.025787	-0.037690	-0.007172	
-0.019073	-0.041047	-0.001068	-0.006256	
0.005646	-0.039826	0.048982	-0.004120	
0.030670	-0.033418	0.027313	-0.010223	
0.062409	-0.020294	-0.019684	-0.013580	
0.070344	0.007172	0.048371	-0.011749	
0.056611	0.005646	-0.017853	-0.012054	
0.036469	-0.010223	-0.035859	-0.003510	
0.000458	-0.006256	-0.031587	-0.008087	
-0.023651	-0.005646	-0.083772	-0.005341	
-0.045014	0.003815	-0.122225	-0.009918	
-0.035859	0.019989	-0.034638	-0.000763	
-0.028839	0.020905	0.075837	-0.007477	
-0.011749	0.026703	0.164950	-0.003510	
-0.007477	0.019379	0.095980	0.000763	
-0.005341	0.012054	-0.057832	-0.002899	
-0.012360	0.006866	0.057221	-0.001984	
-0.007782	0.008698	0.077058	0.000153	
-0.011749	0.006256	0.044404	-0.005341	
-0.004425	0.012360	0.033418	-0.003510	
0.008087	0.008698	0.008087	-0.005951	
0.002899	0.005035	-0.000153	-0.011139	
-0.031587	0.008392	-0.011749	-0.012970	
-0.067292	0.022430	-0.019073	-0.011749	
-0.077668	0.024261	0.004730	-0.007172	
-0.019989	0.004730	-0.008087	-0.015717	
0.045930	0.001984	0.002594	-0.001984	
0.062409	-0.009613	0.007172	-0.006256	
0.046540	-0.009003	0.025482	-0.002899	
0.017853	-0.039521	0.006256	-0.011749	
0.004730	-0.075532	-0.016022	-0.003510	
-0.021515	-0.079194	-0.033723	-0.006256	
-0.030365	-0.052339	0.020294	-0.001984	
-0.054475	-0.031281	0.047761	-0.007172	
-0.064240	0.008087	-0.066987	-0.009918	
-0.063630	0.016327	-0.043489	-0.007172	
-0.049287	0.021820	-0.029449	-0.011139	
-0.041352	0.026093	0.041352	-0.009308	
-0.035554	0.025787	0.004730	-0.007782	
-0.007782	0.035249	0.083467	-0.000763	
-0.003815	0.027008	0.081025	-0.016632	
0.002289	0.025787	-0.045930	-0.012970	
0.010529	0.020905	0.014191	-0.012054	
0.035249	0.028229	-0.070344	-0.003510	
0.047151	0.006866	-0.021820	-0.010529	
0.050813	-0.002899	0.004425	-0.010529	
0.042573	0.021820	-0.007477	-0.009308	
0.048676	0.041963	0.050813	-0.005035	
0.051118	0.015106	0.105745	-0.007172	
0.024872	-0.016022	0.006866	-0.001984	
-0.013275	-0.030975	-0.094759	-0.009308	
-0.023956	-0.007782	0.004425	-0.000153	
-0.024872	0.012665	-0.003510	-0.005035	
-0.007477	0.032197	0.026398	-0.005035	
0.000458	0.025177	0.005035	-0.003510	
-0.000763	0.001984	-0.009918	-0.009613	
0.005951	0.008392	-0.009003	-0.008392	
0.005035	-0.002289	0.021210	-0.010529	
-0.017548	-0.014191	0.060578	-0.004425	
-0.045320	-0.020905	0.061494	-0.009918	
-0.029755	-0.006866	0.036469	-0.005035	
-0.018158	0.010834	0.005035	-0.014191	
-0.004425	0.010223	-0.025482	-0.011749	
-0.017242	-0.035249	-0.032197	-0.011139	
-0.021515	-0.026093	-0.014191	-0.005646	
-0.030365	-0.011139	-0.017853	-0.008392	
-0.026093	0.004425	-0.009613	-0.006256	
-0.016937	0.026398	0.017853	-0.010223	
-0.003510	0.028839	-0.003204	-0.005035	
0.003815	0.024567	-0.011749	-0.010223	
0.023956	0.020905	-0.033418	-0.001373	
0.061189	0.001678	0.018463	-0.003510	
0.037080	-0.011139	-0.007782	-0.009918	
-0.042878	-0.009003	0.080110	-0.005951	
-0.070039	-0.002289	0.073396	-0.007782	
-0.085298	0.001678	-0.100863	-0.006256	
-0.089265	0.000458	-0.042573	-0.009918	
-0.068208	-0.012054	0.108187	-0.002289	
-0.056306	0.001984	0.113680	-0.008392	
-0.026093	0.021210	-0.026398	0.006561	
-0.013580	0.042268	0.059358	-0.005341	
0.013275	0.074006	0.047151	-0.001068	
0.034028	0.064851	0.022736	-0.013885	
0.046540	0.042878	0.020599	-0.005951	
0.042268	0.023346	0.009918	-0.010223	
0.080110	0.002289	0.002899	-0.007477	
0.106356	-0.008392	0.007172	-0.008392	
0.121309	-0.027313	0.009003	-0.001984	
0.121309	-0.094149	0.004120	-0.001984	
0.052033	-0.106050	0.001984	-0.008392	
-0.027008	-0.078279	-0.011139	-0.010223	
-0.055085	-0.014191	-0.023346	-0.009003	
-0.049287	0.042878	-0.001068	-0.005951	
-0.033723	0.045014	0.004120	-0.008087	
-0.012054	0.047151	0.026703	0.000458	
-0.027008	0.029755	0.004730	-0.012970	
-0.025787	0.025177	0.014191	-0.001984	
-0.034333	0.007172	0.027008	-0.010223	
-0.041963	0.008698	-0.010223	-0.011139	
-0.037080	0.016022	-0.074311	-0.005035	
-0.019379	0.011749	-0.030365	-0.001373	
0.002289	0.013885	0.113985	-0.005035	
0.012665	0.018768	0.109407	-0.015717	
0.027008	0.016632	0.034333	-0.009003	
0.026398	0.010529	0.012665	-0.007782	
0.022736	-0.007172	0.052949	0.000763	
-0.004425	-0.037385	-0.040742	0.000153	
-0.043489	-0.045625	-0.153048	-0.004425	
-0.036164	-0.041047	-0.125277	-0.006256	
-0.020294	-0.016937	-0.004425	-0.006256	
-0.017853	-0.000763	0.041352	-0.007782	
-0.025482	0.002594	0.014496	-0.008392	
-0.031892	0.000458	0.073396	0.001068	
-0.051423	-0.002289	0.047761	0.002594	
-0.061494	-0.008087	0.043183	-0.005951	
-0.048371	0.002594	0.055085	-0.003510	
-0.029755	0.003815	0.038911	-0.009003	
-0.005035	0.013275	-0.074616	0.000458	
0.017242	0.000763	-0.175326	-0.011444	
0.028534	0.000458	-0.034028	-0.012054	
0.026093	0.007782	0.142366	-0.009308	
0.016937	-0.002899	0.095980	-0.005951	
0.014801	-0.001068	-0.013885	-0.004425	
0.008087	-0.001678	0.026398	-0.005646	
0.009003	0.010834	0.024872	-0.005646	
0.003815	0.019989	0.023041	-0.011444	
0.005646	0.033113	-0.000763	-0.006256	
0.001984	0.023346	-0.049897	-0.012970	
0.014801	0.020905	0.022125	0.000763	
-0.001068	0.000153	0.053864	-0.005035	
-0.004120	-0.001678	0.046540	-0.001984	
-0.010834	-0.022430	-0.000763	-0.006866	
-0.018158	-0.019989	0.018463	-0.004120	
-0.023956	-0.005951	0.009003	-0.011139	
-0.013885	0.014496	0.021210	-0.005951	
-0.011749	0.013275	-0.002899	-0.007782	
-0.019989	-0.012054	-0.024261	-0.008392	
-0.025482	-0.049897	-0.016327	-0.005035	
-0.079194	-0.114901	-0.016937	-0.003204	
-0.103914	-0.170749	-0.002289	-0.005646	
-0.063020	-0.131685	0.057527	-0.009003	
0.027008	-0.042268	0.085298	-0.005951	
0.045014	0.051118	-0.019379	-0.009918	
0.035859	0.121920	-0.093232	-0.003204	
0.029755	0.147860	-0.021820	-0.006256	
0.028534	0.147554	0.093537	-0.005646	
0.022430	0.122530	0.014801	-0.006866	
0.011139	0.098421	0.034028	-0.007782	
0.005646	0.067597	0.008698	-0.016327	
0.014191	0.037385	0.012665	-0.009918	
0.034944	0.011749	-0.069123	-0.009003	
0.068513	0.022736	-0.091096	-0.002899	
0.081025	0.029755	0.017242	-0.009308	
0.072480	0.046235	0.138704	-0.004120	
0.032502	0.040437	0.113070	-0.008392	
0.000458	0.030060	-0.097811	-0.011444	
-0.007477	0.025787	0.012970	-0.005951	
-0.025177	0.024872	0.079499	-0.012970	
-0.033113	0.002899	-0.050202	-0.009308	
-0.041963	-0.025482	-0.011749	-0.007477	
-0.041657	-0.047151	0.015411	-0.004425	
-0.047151	-0.067292	-0.002289	-0.015411	
-0.033723	-0.056611	-0.001678	-0.003204	
-0.037385	-0.045930	0.005035	-0.010529	
-0.031281	-0.032502	-0.005341	-0.006256	
-0.022125	-0.042573	-0.001373	-0.005646	
0.009918	-0.031281	0.011139	-0.001373	
0.001068	-0.037080	0.022430	-0.005646	
-0.019379	-0.065461	0.034638	-0.005646	
-0.032197	-0.062409	0.022736	-0.007782	
-0.036469	-0.050202	0.011749	-0.006256	
-0.034944	-0.032502	0.024567	-0.005035	
-0.037690	-0.002899	0.027008	-0.003510	
-0.034333	0.017242	0.021210	-0.003510	
-0.021820	0.025177	-0.031281	-0.001678	
-0.009613	0.021820	-0.033113	-0.000763	
-0.025787	0.009918	-0.059968	-0.009613	
-0.037080	0.002594	-0.049592	-0.005951	
-0.037080	-0.019684	-0.034028	-0.005341	
-0.006256	-0.024261	0.018158	-0.001678	
0.019073	-0.015717	0.079804	-0.009308	
0.044099	0.014191	0.058747	-0.006256	
0.063020	0.027924	-0.010223	-0.008087	
0.054780	0.033418	0.001984	-0.003510	
0.037080	0.005646	0.042573	-0.008087	
0.033723	-0.023956	0.105135	-0.005646	
0.042878	-0.020905	0.047151	-0.012970	
0.068208	-0.005646	-0.038301	-0.008087	
0.046845	0.012054	-0.089875	-0.003204	
-0.005951	0.013885	-0.073091	-0.003510	
-0.028229	-0.004120	0.043183	-0.004425	
-0.041047	0.024567	0.103914	-0.008087	
-0.049287	0.057221	0.036469	0.000153	
-0.059663	0.075532	0.000153	-0.002289	
-0.049897	0.092622	-0.003815	0.000458	
-0.051728	0.074006	0.008392	-0.008392	
-0.019379	0.069123	0.021515	0.000458	
-0.027618	0.048371	0.057221	-0.007477	
-0.003510	0.030670	0.074922	-0.000763	
0.012665	-0.019379	0.025177	-0.010223	
0.001678	-0.026398	0.009918	-0.007172	
-0.005341	-0.016327	-0.003815	-0.010529	
0.016022	0.002899	0.030365	-0.010223	
0.007782	0.008087	-0.011139	-0.006866	
-0.013275	-0.005646	-0.035859	-0.009918	
-0.021210	0.011749	-0.062104	-0.012970	
-0.033723	0.010834	-0.144808	-0.006256	
-0.045625	0.040437	-0.052644	-0.002899	
-0.023956	0.015106	-0.095980	-0.007172	
0.019684	-0.063935	0.119173	-0.004120	
-0.001373	-0.081330	-0.023651	-0.009918	
-0.023346	-0.127413	0.024872	-0.004425	
-0.035554	-0.117952	0.100863	-0.004120	
-0.015411	-0.055085	0.058747	-0.005646	
0.012360	0.019073	-0.110018	-0.012970	
0.016632	0.078279	-0.059968	-0.012970	
0.001984	0.087129	0.198825	-0.009308	
0.001984	0.087739	0.114901	0.003204	
0.002594	0.068208	-0.012360	0.000153	
0.018768	0.049287	0.063325	0.002899	
0.028839	0.022430	-0.029449	0.000763	
0.053864	0.004425	0.021515	0.002594	
0.077363	0.003815	0.112459	-0.003204	
0.058137	0.006256	0.062409	-0.009918	
0.043794	0.012054	-0.034638	-0.009918	
0.013885	0.004425	-0.041352	-0.009918	
-0.004120	-0.020905	-0.021210	-0.008087	
-0.012360	-0.035554	0.004425	-0.011749	
-0.009613	-0.019379	-0.001678	-0.007477	
-0.016022	-0.005951	0.002594	-0.011749	
-0.022125	0.001984	-0.003204	-0.012360	
-0.029144	0.002289	-0.031281	-0.013885	
-0.025177	0.012360	-0.023346	-0.003510	
-0.025787	-0.001068	-0.016937	-0.009003	
-0.015106	0.002289	-0.005341	-0.000153	
-0.020294	-0.003204	0.019379	-0.005951	
-0.022430	0.010223	0.068818	-0.007477	
-0.012054	0.011749	0.028839	-0.006256	
-0.011444	0.010223	0.010529	-0.009003	
-0.012054	0.000458	-0.005646	-0.007782	
-0.017242	-0.011444	-0.014191	-0.011444	
-0.011139	-0.007477	0.004425	-0.005646	
-0.019073	-0.017242	0.013885	-0.013275	
-0.013580	-0.009613	0.034333	-0.005646	
-0.018158	-0.012360	0.012665	-0.007172	
-0.017548	-0.011139	-0.049897	-0.001678	
-0.025787	-0.005646	-0.141146	-0.009308	
-0.049287	0.026398	-0.106661	-0.005646	
-0.093232	0.036164	0.067292	-0.007172	
-0.072480	0.027008	0.168918	-0.006866	
-0.005646	-0.025177	0.166781	-0.010223	
0.053864	-0.031587	0.008087	-0.007172	
0.053864	-0.015411	-0.057832	-0.003510	
0.031892	0.000153	-0.015411	0.000763	
-0.010223	-0.002899	-0.041352	-0.001678	
-0.034028	0.000153	0.001984	-0.003510	
-0.045014	-0.009918	0.033113	-0.000153	
-0.041657	-0.022125	0.036775	-0.000763	
-0.025177	-0.023346	0.023346	-0.008392	
-0.003510	-0.033113	0.015411	-0.015717	
0.034944	-0.035249	0.016327	-0.009003	
0.058137	-0.029449	0.000458	-0.010529	
0.068208	-0.009003	0.005951	-0.010223	
0.069123	0.006256	-0.004425	-0.011139	
0.081330	0.018768	-0.025482	-0.005646	
0.071259	0.013275	-0.038301	-0.007782	
0.058137	0.010529	-0.007172	-0.005035	
0.060578	-0.004425	0.092011	-0.011444	
0.037995	-0.044404	0.027924	-0.008392	
-0.001373	-0.065461	0.042268	-0.006256	
-0.037995	-0.018158	0.020599	-0.011749	
-0.057221	0.041963	-0.027008	-0.007172	
-0.085603	0.080720	-0.021515	-0.009918	
-0.080415	0.093537	0.022736	-0.004425	
-0.039216	0.078584	0.069123	-0.010223	
-0.034944	0.061189	0.048676	-0.007172	
-0.045930	0.047456	0.058747	-0.007172	
-0.045014	0.022125	0.088960	-0.008392	
-0.062409	0.014496	0.009918	-0.009308	
-0.052339	0.034944	0.000763	0.001678	
-0.037690	0.034638	-0.133821	-0.000763	
-0.010834	0.037385	-0.138399	0.002594	
0.007172	0.036164	-0.048676	-0.001373	
0.012665	0.054170	0.061494	-0.000153	
-0.002289	0.045320	0.018463	-0.005951	
-0.001984	0.027313	0.063020	-0.004120	
0.002594	-0.007172	0.029144	-0.009918	
0.008392	-0.028229	-0.015106	-0.007172	
0.023651	-0.061494	-0.019073	-0.009003	
0.063325	-0.069428	-0.000153	-0.009308	
0.059968	-0.035859	0.004120	-0.005646	
0.042878	-0.007172	-0.009918	-0.002899	
0.012360	0.016632	-0.029449	0.000763	
-0.025482	0.009918	-0.029144	-0.006866	
-0.044404	0.001068	0.030060	-0.000763	
-0.056916	-0.021515	0.047761	-0.004425	
-0.061189	-0.043794	0.020294	-0.000763	
-0.065766	-0.057832	0.011139	-0.011139	
-0.042878	-0.036469	-0.027924	-0.007172	
-0.020294	-0.019989	-0.034638	-0.007172	
-0.017853	-0.004120	0.020294	-0.005341	
-0.021210	-0.002899	0.099031	-0.010223	
-0.005951	-0.009918	0.028839	-0.004120	
0.030975	0.003815	0.018463	-0.008392	
0.062409	0.034638	0.046540	-0.010529	
0.057221	0.044709	-0.006866	-0.005341	
0.037995	0.019989	-0.044404	-0.003815	
0.015106	0.001678	-0.014191	-0.008392	
0.014801	0.004425	0.052339	-0.007782	
0.050202	0.016022	0.038606	-0.005035	
0.040742	0.022125	-0.054780	-0.006256	
0.018158	0.024567	0.012054	-0.005035	
-0.017548	0.002899	0.040437	-0.006256	
-0.031281	-0.007172	0.039216	-0.001373	
-0.041352	-0.012054	0.046540	-0.009918	
-0.041352	-0.009003	0.055390	-0.011139	
-0.037690	-0.005341	0.009003	-0.014191	
-0.029144	0.002899	0.009003	-0.008392	
-0.027924	-0.003510	-0.102694	-0.013885	
-0.020294	0.005951	-0.011139	-0.008087	
-0.051728	0.010529	0.091096	-0.012054	
-0.070344	0.016327	-0.012054	-0.007172	
-0.070039	0.004120	-0.064851	-0.008087	
-0.054170	-0.002899	0.001984	-0.011139	
-0.005035	-0.011749	-0.006866	-0.002289	
0.036469	-0.041657	0.069428	-0.003204	
0.021210	-0.055390	0.048982	0.002594	
-0.032502	-0.047456	-0.064240	-0.000763	
-0.039826	0.005035	-0.029144	-0.001068	
-0.003204	0.017853	0.044404	-0.004425	
0.046235	0.021210	0.047761	0.001678	
0.052949	0.022125	0.058747	-0.004425	
0.049897	0.027924	0.051423	-0.003510	
0.047151	0.015106	-0.038606	-0.011139	
0.058137	0.012054	-0.015717	-0.005035	
0.046540	0.005951	0.002594	-0.012054	
0.036469	0.024567	0.011139	-0.012360	
0.019989	0.028534	0.020294	-0.009918	
-0.002899	-0.001984	0.016327	-0.012054	
-0.008087	-0.025787	0.006256	-0.011749	
-0.013885	-0.018463	-0.003815	-0.011749	
-0.014191	0.004120	-0.023346	-0.012054	
-0.013580	0.019989	-0.021820	-0.007782	
-0.012360	0.033418	0.017853	-0.003204	
-0.024261	0.020599	0.042878	-0.009308	
-0.013275	0.016022	0.019989	-0.009003	
0.009613	0.023346	0.014801	-0.009308	
0.042573	-0.017548	0.065766	-0.005646	
0.019073	-0.073396	0.014191	-0.011749	
-0.021820	-0.037080	-0.069123	-0.002899	
-0.081025	-0.015411	0.026398	-0.010529	
-0.073091	0.010529	-0.074616	-0.001984	
-0.056916	0.014496	-0.048676	-0.005951	
-0.037080	0.054170	0.048676	-0.003510	
-0.039826	0.059968	0.036775	-0.010223	
-0.021820	0.050508	0.009918	-0.009918	
-0.001068	-0.002289	0.006256	-0.010529	
-0.015106	-0.034333	-0.004120	-0.005951	
-0.000763	-0.020294	-0.001068	-0.004120	
-0.003510	0.009003	0.016632	-0.012054	
-0.032502	0.053254	-0.003204	-0.009308	
-0.033723	0.060578	-0.020599	-0.010529	
0.020294	0.028839	-0.033418	-0.008087	
0.056916	-0.021210	-0.034028	-0.014496	
0.064240	-0.016327	-0.010223	-0.009308	
0.039826	-0.005341	0.037690	-0.014191	
0.026703	0.004120	0.110933	-0.005035	
0.016937	-0.003510	0.071565	-0.009918	
0.027924	-0.006866	0.055696	-0.011444	
0.040742	-0.015411	0.095980	-0.006256	
0.037995	-0.013580	0.042878	-0.005035	
0.016632	-0.009613	-0.012360	-0.005951	
-0.005646	0.003815	-0.071870	-0.002899	
-0.029755	0.005951	-0.039826	-0.006866	
-0.024872	0.006561	0.016327	-0.003815	
-0.015106	0.014496	0.032807	0.000153	
-0.031587	0.012970	0.009918	-0.005341	
-0.033723	-0.020905	0.001068	-0.006256	
-0.029755	-0.023346	0.002899	-0.007782	
-0.009003	-0.004425	0.024872	-0.000153	
0.034638	0.004425	-0.006256	-0.005951	
0.039216	0.003815	-0.025787	-0.001373	
0.005035	-0.041963	-0.027618	-0.003815	
-0.011749	-0.032502	0.007782	0.002594	
-0.065461	-0.018158	-0.095369	-0.006256	
-0.095980	0.001678	-0.168612	-0.000763	
-0.121309	0.014496	0.003815	-0.006256	
-0.097200	0.017853	0.263523	0.002899	
-0.050202	0.014191	0.110933	-0.004425	
-0.009613	0.010834	-0.077973	-0.011139	
0.016327	0.012054	0.001678	-0.009003	
0.022125	0.010529	0.023041	-0.011139	
0.012360	0.008698	0.068818	-0.008087	
0.006256	0.000763	0.038911	-0.008392	
0.012054	-0.000763	0.016327	-0.009308	
0.007172	-0.000763	0.032197	-0.016327	
0.012665	0.010529	-0.004120	-0.009613	
0.013275	0.015106	0.016327	-0.009308	
0.013275	0.020294	0.034944	-0.006256	
0.000458	0.010834	-0.015106	-0.012970	
-0.001373	0.006561	-0.088960	-0.008087	
-0.002289	0.002289	-0.077973	-0.013275	
0.001068	0.002289	0.045014	-0.005646	
0.004120	0.002289	0.016022	-0.004120	
0.003204	0.001678	0.032502	-0.005035	
0.003815	0.002899	0.016022	-0.007172	
0.012054	0.013275	0.002594	-0.009003	
0.009918	0.007782	0.026093	-0.008392	
0.002594	0.003815	0.032197	-0.008087	
0.001984	0.013275	0.005341	-0.005035	
0.000763	0.037995	0.010529	-0.001984	
-0.007477	0.032502	0.020599	-0.001678	
-0.024261	0.002899	0.027008	-0.008087	
-0.032502	-0.001373	0.027924	-0.005646	
-0.036469	-0.011444	0.023041	-0.008392	
-0.023651	-0.021515	0.016327	0.000153	
-0.063935	-0.042268	-0.015411	-0.003510	
-0.045320	-0.036469	-0.005646	0.001068	
-0.024261	-0.017242	-0.012360	-0.006256	
-0.022125	-0.002899	-0.026093	-0.000763	
-0.042878	-0.009613	-0.105440	-0.005341	
-0.035859	-0.017242	-0.131380	-0.000763	
-0.009308	-0.041047	-0.068513	-0.010223	
0.022430	-0.049592	0.044709	-0.009613	
0.034333	-0.027008	0.198825	-0.007782	
0.017242	-0.001068	0.153658	-0.011749	
0.034028	0.021820	0.030670	-0.009918	
0.058747	0.027313	0.065156	-0.012360	
0.081025	0.030365	-0.005035	0.000153	
0.074006	0.025177	-0.067597	-0.007477	
0.082856	0.043489	-0.087129	-0.005035	
0.061189	0.040742	-0.035859	-0.014496	
0.046235	0.042878	0.004730	-0.013885	
0.026703	0.029755	0.046845	-0.013580	
0.015717	0.020294	0.027924	-0.002899	
0.011139	0.000458	0.025482	-0.014191	
-0.021210	-0.017548	-0.027618	-0.005646	
-0.057527	-0.019989	0.034638	-0.010223	
-0.052949	-0.017242	0.063020	-0.007477	
-0.037690	0.010834	0.010529	-0.006256	
-0.020294	0.048982	0.004730	-0.006866	
-0.033723	0.047456	0.016937	-0.009308	
-0.036469	0.038911	0.002594	-0.006256	
-0.038301	0.037995	-0.016022	-0.007477	
-0.052033	0.028534	-0.019073	-0.011749	
-0.051118	-0.030975	0.002899	-0.005646	
-0.101473	-0.148165	0.027008	-0.015106	
-0.111849	-0.205844	0.006256	-0.004425	
-0.043183	-0.183871	-0.006866	-0.007172	
0.021210	-0.057527	0.016327	-0.004425	
0.007172	0.059968	0.022736	-0.012054	
-0.035554	0.141146	0.011139	-0.003510	
-0.061189	0.142061	0.004730	-0.012054	
-0.051728	0.138704	0.026398	-0.007782	
-0.031587	0.105745	0.010529	-0.009613	
-0.010223	0.074616	0.016937	-0.008087	
-0.006256	0.041352	0.005951	-0.004425	
0.011139	0.004120	-0.014496	-0.004120	
0.048371	-0.022125	-0.041963	-0.007477	
0.097506	-0.016937	-0.037995	-0.005646	
0.112154	0.011749	0.016327	-0.007172	
0.091401	0.042268	0.050813	-0.014191	
0.045320	0.052033	0.002594	-0.005951	
0.004425	0.038911	0.024872	-0.009308	
-0.025482	-0.012360	0.103609	-0.001984	
-0.042268	-0.055085	0.049287	-0.005035	
-0.012054	-0.029449	0.070039	0.000763	
0.024261	-0.014801	0.060273	-0.001984	
0.051728	-0.002899	-0.039826	-0.002899	
0.041352	-0.011139	-0.103304	-0.001678	
-0.003815	-0.011749	-0.129244	-0.000763	
-0.065156	-0.012970	-0.023041	-0.007172	
-0.110323	0.040437	0.034028	-0.003204	
-0.093537	0.045930	0.063020	-0.003510	
0.004120	0.019073	0.076447	-0.009918	
0.072785	-0.003204	-0.070649	-0.012054	
0.066987	-0.041352	0.018768	-0.010223	
0.040132	-0.061189	-0.004120	-0.009308	
0.008392	-0.063325	-0.106050	-0.005341	
-0.009003	-0.056611	-0.074922	-0.000153	
-0.033113	-0.056611	0.100252	-0.007172	
-0.034333	-0.054475	0.000153	-0.010529	
-0.013580	-0.055696	-0.017548	-0.010223	
0.019989	-0.034028	0.103914	-0.005035	
0.021820	0.006256	0.051728	-0.013275	
0.014496	0.024567	-0.007172	-0.002899	
-0.015411	-0.028229	0.104830	-0.003510	
-0.047761	-0.063935	-0.001373	0.002899	
-0.078584	-0.047151	-0.071870	-0.003510	
-0.078279	-0.004120	0.039521	-0.000763	
-0.082246	0.024567	0.035554	-0.005035	
-0.060578	0.042268	0.111544	-0.005951	
-0.013885	0.008392	0.019379	-0.004120	
-0.004425	-0.034028	-0.006866	-0.009003	
-0.000153	-0.000763	-0.025177	-0.005646	
0.004730	0.033113	-0.014191	-0.005646	
0.002899	0.067597	0.009003	-0.003815	
-0.019379	0.067292	0.000153	-0.012360	
-0.021210	0.064240	0.021210	-0.011444	
0.008392	0.048066	0.007782	-0.015411	
0.053864	0.047456	0.008392	-0.009613	
0.052949	0.037385	0.000153	-0.014191	
0.034333	0.030975	-0.001984	-0.011444	
0.001984	0.029144	-0.006866	-0.013580	
0.010223	0.034638	0.004425	-0.005951	
0.023041	0.018768	-0.001373	-0.008087	
0.020905	0.010529	-0.001984	-0.009918	
0.016327	0.011139	0.004425	-0.009003	
0.019073	0.014496	0.005341	-0.005646	
0.043183	0.010223	0.002594	-0.005646	
0.042268	0.007172	-0.000153	-0.006866	
0.019073	0.004425	0.006256	-0.004425	
-0.004425	0.002899	0.002899	-0.005951	
-0.013885	0.008087	0.005951	-0.005951	
-0.015106	0.004120	0.007782	-0.007477	
-0.009308	0.012360	0.011749	-0.001984	
-0.013275	-0.007172	0.003815	-0.005646	
-0.003815	-0.023041	0.011139	-0.001678	
-0.001068	-0.025177	0.005341	-0.010529	
0.009918	-0.011139	0.009003	-0.005646	
-0.020294	-0.035554	0.008698	-0.000763	
-0.073091	-0.064240	0.007172	0.000763	
-0.091096	-0.074616	0.012054	-0.001678	
-0.062104	-0.046235	0.016327	-0.004120	
-0.043489	-0.012360	0.015106	-0.002899	
-0.041963	0.004120	-0.007172	-0.004425	
-0.029755	0.002594	-0.005341	-0.002899	
-0.021210	0.016327	0.005035	-0.005035	
-0.020905	0.021820	-0.002899	-0.006256	
-0.016937	0.034638	0.015411	-0.006866	
-0.001678	0.032502	0.060273	-0.000763	
0.000763	0.016632	-0.009308	-0.005646	
0.026703	0.030975	-0.014496	0.003204	
0.044099	0.037385	-0.006866	-0.005646	
0.063020	0.056306	-0.040437	-0.000763	
0.055390	0.061189	-0.005646	-0.009308	
0.027313	0.042878	0.051728	-0.003204	
-0.006256	0.005646	0.028534	-0.008392	
-0.024872	-0.023346	0.060884	0.000763	
-0.043489	-0.050202	0.030975	-0.009918	
-0.041963	-0.034333	0.004120	-0.010223	
-0.032197	-0.016937	-0.029755	-0.007782	
-0.029144	-0.009918	0.000458	-0.010223	
-0.031587	0.004425	0.042573	-0.009918	
-0.021210	0.017853	0.050202	-0.005035	
0.009613	0.021820	0.013885	-0.006866	
0.033723	0.014496	0.040437	-0.007172	
0.040742	-0.009918	0.049287	-0.002899	
0.039216	-0.020294	0.002899	-0.012360	
0.049287	-0.041657	-0.056306	-0.009918	
0.050813	-0.053254	-0.099337	-0.012360	
0.018158	-0.034028	-0.010834	-0.005646	
-0.028229	-0.054170	0.093232	-0.011139	
-0.056306	-0.021210	0.030060	-0.000153	
-0.090180	0.003815	0.017853	-0.002899	
-0.088349	-0.005646	0.040132	-0.001068	
-0.063630	-0.037995	-0.013885	-0.003204	
-0.021210	-0.017853	-0.098116	0.000153	
0.020599	0.028229	-0.018158	-0.003815	
0.027008	0.058442	0.030365	-0.005035	
0.017853	0.062715	0.021515	-0.008087	
0.008087	0.058442	0.021210	-0.012360	
0.011139	0.052339	0.036164	-0.008392	
0.012054	0.042268	-0.017548	-0.013580	
0.017853	0.043183	0.027924	-0.010529	
0.011139	0.016632	0.009003	-0.014496	
0.012665	0.020294	0.018463	-0.005951	
-0.005341	0.013885	0.024872	-0.014191	
-0.016022	0.014496	0.023346	-0.008392	
-0.028229	0.004120	0.001984	-0.012054	
-0.023956	0.005951	0.005951	-0.004120	
-0.025177	-0.005035	0.002899	-0.008087	
-0.005035	-0.004120	0.007782	-0.001678	
0.005646	-0.033113	0.006256	-0.004425	
0.001984	-0.032197	0.007172	-0.005035	
-0.035249	-0.017853	0.007172	-0.006866	
-0.073091	-0.025787	0.008698	-0.006866	
-0.053254	-0.019684	0.008698	-0.009308	
0.004120	-0.013580	0.001068	-0.015106	
0.041047	0.012360	0.006256	-0.007477	
0.046235	0.031892	0.004730	-0.008392	
0.048676	0.012665	0.006256	-0.007477	
0.037080	-0.039826	0.001068	-0.010529	
0.012360	-0.047151	0.007172	-0.007477	
-0.008087	-0.029755	0.014191	-0.006866	
-0.019379	-0.007172	0.032502	-0.002289	
-0.046540	0.002594	0.010529	-0.010223	
-0.033418	0.016937	-0.013885	-0.008392	
0.038606	0.033113	-0.029144	-0.011749	
0.090180	0.051118	0.012054	-0.003204	
0.060884	0.027008	0.009003	-0.007477	
0.059968	0.004425	-0.061799	-0.005035	
0.076753	0.026703	-0.007477	-0.006866	
0.052339	0.079499	-0.008087	-0.003510	
0.007782	0.081635	0.110933	-0.000763	
-0.045014	0.028534	0.085298	-0.003510	
-0.060273	0.012970	-0.096590	-0.003510	
-0.063325	0.028839	-0.141146	-0.007782	
-0.058442	0.052339	-0.061494	-0.002899	
-0.072480	0.051423	0.074922	-0.009613	
-0.101168	0.052339	0.208285	-0.004425	
-0.152132	0.026398	0.113680	-0.012054	
-0.111544	0.004425	-0.034333	-0.012054	
-0.059358	-0.022125	0.034028	-0.004120	
0.028534	-0.121004	0.013885	-0.002899	
0.100557	-0.173190	0.015411	-0.007172	
0.102999	-0.120699	0.008698	-0.008392	
0.077363	-0.069428	0.008698	-0.005035	
0.046540	-0.058137	0.001984	-0.005646	
0.037995	-0.025787	0.001678	-0.006866	
0.002289	0.024567	-0.002899	-0.007782	
-0.022125	0.049897	0.005341	-0.002289	
-0.045625	-0.002899	-0.001678	-0.011139	
-0.036164	-0.019989	0.002594	-0.008392	
-0.027924	-0.016937	-0.003204	-0.012054	
-0.024261	0.010223	0.004120	-0.002899	
-0.036164	0.019073	0.003204	-0.011444	
-0.023041	0.036775	0.014496	-0.009918	
-0.015411	0.038606	-0.003510	-0.013885	
-0.005646	0.053559	-0.015411	-0.006256	
-0.005646	0.055085	-0.019684	-0.007782	
0.002594	0.060578	-0.032502	-0.005035	
0.008087	0.051118	-0.060578	-0.013885	
0.013275	0.029144	-0.009003	-0.010223	
0.025177	0.000153	0.160983	-0.004425	
0.018463	-0.017853	0.125582	-0.008392	
-0.011749	-0.037080	0.012665	-0.013580	
-0.037385	-0.042573	-0.019989	-0.007782	
-0.012360	-0.043183	-0.112764	-0.010529	
0.012970	-0.056001	-0.039216	-0.012054	
0.030060	-0.026398	0.034944	-0.001984	
0.014191	-0.028229	0.021210	-0.009613	
-0.006256	-0.031281	0.012054	-0.005951	
-0.027618	-0.019379	0.009003	-0.012970	
-0.030975	0.006561	0.013885	-0.008087	
-0.041047	0.036164	0.004730	-0.005035	
-0.049897	0.037080	-0.011444	-0.005646	
-0.043794	0.032197	-0.023651	-0.009918	
-0.021820	0.040437	-0.005341	-0.004425	
-0.001678	0.038606	0.004730	-0.011139	
0.021210	0.046845	0.050508	-0.004120	
0.015717	0.032197	0.082856	-0.010223	
0.029755	0.008392	0.038911	-0.011139	
0.026398	0.008698	0.037690	-0.010223	
0.026093	-0.001373	-0.001068	-0.004425	
0.045014	-0.037385	-0.049592	-0.003510	
0.028839	-0.006866	-0.054780	-0.008087	
0.007782	0.024567	-0.059663	-0.005951	
-0.006866	0.028534	-0.027008	-0.003510	
-0.027008	0.023041	0.008698	-0.003204	
-0.057221	0.006561	-0.045320	-0.005646	
-0.064240	0.007782	-0.040742	-0.002899	
-0.065461	0.000763	0.091401	-0.005035	
-0.052339	0.002899	0.187839	0.000153	
-0.041963	-0.015106	-0.022125	-0.008392	
-0.019684	-0.011444	-0.014191	-0.002289	
-0.008087	-0.019073	-0.001678	-0.005951	
0.011139	-0.008087	-0.021515	-0.004425	
0.024872	-0.001068	0.047151	-0.009003	
0.017853	0.000153	0.039216	-0.000763	
0.021820	-0.025177	0.014801	-0.006866	
0.032197	-0.035859	0.016937	-0.005646	
0.005035	-0.033113	0.031281	-0.004425	
-0.025787	-0.006866	0.020294	-0.005951	
-0.028229	0.010223	0.027924	-0.003510	
-0.020905	0.006256	0.024261	-0.009918	
-0.009613	0.008698	0.022125	-0.007782	
-0.013580	0.010223	0.002289	-0.005035	
-0.017242	0.003815	-0.036775	-0.007782	
-0.016327	-0.001373	-0.032502	-0.011444	
-0.003204	0.013885	0.004120	-0.000153	
0.009003	0.016937	0.013275	-0.005035	
0.020905	0.012360	0.007782	-0.005951	
0.044099	0.003204	0.010834	-0.009308	
0.089875	0.007172	0.021210	-0.005035	
0.094759	-0.032197	0.010529	-0.011444	
0.080110	-0.101778	-0.019989	-0.011444	
0.002594	-0.078279	-0.014496	-0.003510	
-0.064240	0.004425	0.003204	-0.005646	
-0.100557	0.046845	0.011749	-0.005951	
-0.120699	0.056306	0.006256	-0.005035	
-0.103304	0.053254	0.005341	-0.005035	
-0.054170	0.046235	-0.009003	-0.009308	
-0.004425	0.034944	0.010223	-0.009003	
0.006866	0.032197	0.030670	-0.011444	
0.009003	0.048982	0.028839	-0.002899	
-0.010223	0.016327	-0.021515	-0.008392	
-0.008392	-0.001068	-0.023651	-0.002289	
0.022125	-0.003815	0.009003	-0.005035	
0.054475	-0.001984	0.016327	-0.008087	
0.049897	0.011749	-0.003510	-0.007477	
0.042268	0.028839	0.012970	-0.001984	
0.022430	0.019379	-0.015411	-0.010223	
0.019989	0.012360	0.025482	-0.010223	
0.033723	0.001068	0.065156	-0.013275	
0.040742	-0.001068	0.068513	-0.013580	
0.024872	-0.003204	0.038911	-0.009918	
-0.016022	-0.005951	-0.047456	-0.008087	
-0.046540	-0.007782	-0.109407	-0.001984	
-0.043489	-0.018158	0.023346	-0.010223	
-0.004425	-0.015717	0.094149	-0.003510	
0.014496	-0.021210	-0.027008	-0.011749	
0.016022	-0.009613	-0.011749	-0.007477	
-0.033113	-0.023041	0.016327	-0.005035	
-0.066987	-0.045625	0.026093	0.000763	
-0.068208	-0.142366	0.019073	-0.004120	
-0.049592	-0.144503	0.009918	-0.002899	
-0.029755	-0.052033	-0.001678	-0.003510	
-0.028839	0.027924	0.003815	-0.000153	
-0.028229	0.066377	0.012665	-0.009918	
-0.008392	0.099337	0.027313	-0.007477	
0.000763	0.101473	0.017853	-0.007477	
-0.006256	0.100863	0.022736	-0.002899	
-0.023346	0.095675	0.019379	-0.005035	
-0.022430	0.070954	0.010223	-0.007477	
-0.016327	0.065156	0.014191	-0.000763	
-0.062104	0.029144	0.010529	-0.010223	
-0.111849	0.004425	0.008698	-0.007477	
-0.015411	0.011749	0.006256	-0.011139	
0.122530	0.042573	0.002289	-0.003815	
0.130770	0.036775	-0.017548	-0.008392	
0.086823	0.023956	-0.006256	-0.000153	
0.032502	0.004120	0.002289	-0.009003	
0.002899	-0.020294	0.002594	-0.004425	
-0.031281	-0.053254	0.029144	-0.005646	
-0.038301	-0.058442	-0.006866	-0.009613	
-0.035249	-0.059052	-0.001068	-0.009308	
-0.017242	-0.053254	0.019073	-0.006256	
-0.000153	-0.047761	0.021210	-0.011749	
0.012054	-0.046540	0.022125	-0.013885	
0.011139	-0.031892	0.014496	-0.007172	
0.007172	-0.021515	0.036469	-0.008087	
0.024567	-0.004425	0.028839	-0.002289	
0.034944	-0.013275	-0.010223	-0.011139	
0.037080	-0.001373	0.005341	-0.000763	
0.008392	-0.008087	0.005341	-0.005035	
-0.004425	0.006256	0.006866	-0.006256	
-0.012054	0.012970	0.006256	-0.008087	
-0.026398	0.030365	0.005035	-0.004425	
-0.037995	0.033113	0.001984	-0.006866	
-0.028229	0.039216	0.005951	-0.004120	
-0.037690	0.036164	0.003815	-0.006866	
-0.033113	0.034333	0.009003	-0.001678	
-0.061799	-0.038606	0.016632	-0.006866	
-0.035554	-0.072175	0.011139	-0.005341	
0.020599	-0.031281	0.011139	0.000763	
0.030670	0.000763	0.004730	-0.005646	
0.020905	0.031892	-0.024261	-0.003510	
0.011139	0.043183	-0.041657	-0.009003	
-0.005951	0.052033	-0.016937	-0.010223	
-0.027008	0.060273	0.048676	-0.005951	
-0.039826	0.056306	0.050202	-0.001678	
-0.059358	0.027313	0.010529	-0.009308	
-0.051423	0.011749	0.026703	-0.004120	
-0.032502	-0.005951	0.007782	-0.012970	
0.020905	-0.002899	0.012665	-0.005035	
0.068818	-0.005646	0.014191	-0.011749	
0.114901	-0.003510	0.022736	-0.007172	
0.124361	-0.014801	0.012665	-0.008087	
0.080720	-0.032197	0.007782	-0.005035	
0.011749	-0.034028	0.013885	-0.004120	
-0.035554	-0.010834	0.006866	-0.005951	
-0.067903	0.000763	0.001984	-0.005035	
-0.051423	0.018768	0.000153	-0.008392	
-0.041047	0.032502	0.011139	-0.003204	
-0.051728	0.020294	0.001068	-0.005646	
-0.050202	0.016022	0.023346	-0.001678	
-0.053559	0.000458	0.002594	-0.003510	
-0.037080	-0.007172	-0.014496	-0.000763	
-0.032502	-0.030975	-0.022430	-0.010529	
-0.016022	-0.023651	0.001984	-0.000763	
-0.010834	-0.023041	0.014191	-0.007782	
0.009003	-0.011749	0.008698	-0.005035	
0.030060	-0.007477	-0.004425	-0.010529	
0.043794	0.004120	-0.009003	-0.012970	
0.054475	0.024261	0.001984	-0.012054	
0.053864	0.030365	0.016937	-0.008392	
0.042268	0.030975	0.022736	-0.009003	
0.022430	0.022125	0.009308	-0.009918	
0.007782	0.010529	0.012970	-0.010223	
-0.015106	-0.003510	0.022125	-0.013275	
-0.021210	-0.015106	0.014496	-0.007172	
-0.032197	-0.009308	-0.000763	-0.011749	
-0.029755	0.008087	0.007172	-0.003510	
-0.043489	0.001678	0.002594	-0.012054	
-0.034944	0.008698	0.004120	0.000153	
-0.039216	-0.000153	0.005341	-0.009003	
-0.034333	-0.001068	0.019379	-0.001373	
-0.060578	-0.023041	0.006256	-0.006866	
-0.062409	-0.029755	-0.015106	-0.003510	
-0.028839	-0.013275	0.000458	-0.006866	
0.005951	-0.001068	0.059052	-0.001678	
-0.002899	-0.008392	0.029144	-0.007782	
-0.039521	-0.023041	-0.023956	-0.002899	
-0.055696	-0.015411	-0.006866	-0.007477	
-0.037080	-0.005035	-0.012054	-0.005951	
-0.016327	0.018768	-0.016937	-0.002289	
0.017853	0.048066	-0.001678	-0.001678	
0.041352	0.056001	0.070649	-0.001984	
0.037995	0.050202	0.037385	-0.006866	
0.036469	0.046235	-0.021820	-0.004120	
0.070954	0.016632	-0.011749	-0.009003	
0.079804	-0.009918	0.045625	-0.004120	
0.063935	-0.028229	0.061494	-0.011749	
0.056916	-0.025482	-0.003510	-0.003510	
0.032807	-0.016022	0.000458	-0.010223	
0.034028	0.004425	0.012054	-0.006256	
0.012665	-0.009613	0.004730	-0.011444	
-0.016937	-0.048066	0.004120	-0.003815	
-0.060273	-0.037080	0.001068	-0.008087	
-0.091706	0.003815	0.002899	-0.005646	
-0.097200	0.014496	0.007172	-0.005035	
-0.088349	0.013275	0.005341	-0.007172	
-0.061189	0.022430	0.003204	-0.010223	
-0.015106	0.033113	0.005341	-0.003815	
0.052033	0.031281	0.010223	-0.005035	
0.056001	-0.007172	0.002594	-0.009613	
0.038911	-0.049897	0.007172	-0.005646	
0.020294	-0.029755	0.005341	-0.007477	
-0.005341	0.000153	0.007172	-0.004425	
-0.019379	0.011749	0.001984	-0.005035	
-0.005341	0.044099	0.008392	-0.002899	
-0.016327	0.049897	0.007782	-0.012970	
-0.026093	0.046235	0.006866	-0.008392	
-0.047761	0.033113	-0.002289	-0.005951	
-0.008087	0.036775	0.003815	-0.003510	
0.034028	0.011749	0.019073	-0.009918	
0.075227	0.008087	0.040742	-0.003510	
0.074616	0.001984	0.001068	-0.010223	
0.027924	0.008087	-0.011139	-0.013275	
0.010529	0.043183	0.015106	-0.003510	
0.006561	0.043183	0.004730	-0.007477	
0.005035	0.011749	0.012665	-0.003204	
-0.025787	-0.017548	0.006561	-0.009308	
-0.039826	-0.037690	0.012665	-0.005646	
-0.054170	-0.044099	0.009003	-0.007172	
-0.051728	-0.051423	0.010529	-0.004425	
-0.046235	-0.036469	0.008392	-0.009003	
-0.033418	-0.002289	0.012665	-0.005341	
-0.029755	0.001984	0.008087	-0.013885	
-0.018158	0.002289	0.010834	-0.005951	
-0.016937	-0.020905	0.007782	-0.011139	
-0.003204	-0.009613	0.011749	-0.004120	
0.012970	-0.008087	0.005035	-0.009308	
0.004120	-0.035554	0.005341	-0.005646	
0.005646	-0.040132	0.008087	-0.005341	
0.007172	-0.017853	0.002899	-0.005646	
-0.006256	0.009003	0.007782	-0.005646	
-0.027008	0.032197	0.005341	-0.009003	
-0.024872	0.041963	0.005951	-0.008087	
-0.015411	0.040132	0.005951	-0.012970	
-0.012054	0.037385	0.011139	-0.006256	
-0.014191	0.030670	0.009003	-0.008392	
-0.025482	0.028839	0.008087	-0.008087	
-0.032502	0.016022	0.003204	-0.008392	
-0.011749	0.013275	0.016632	-0.008392	
0.013275	0.008698	0.009003	-0.007782	
0.034638	0.016937	0.004120	-0.005951	
0.039826	0.016632	0.009003	-0.005646	
0.037690	0.020294	0.019379	-0.004425	
0.013275	0.010529	0.002594	-0.007782	
-0.005035	0.004425	-0.005951	-0.004425	
-0.015411	-0.003204	0.010834	-0.008392	
-0.016022	0.004730	0.002289	-0.004425	
-0.017853	0.008698	0.016937	-0.001984	
-0.026398	-0.012970	0.024872	-0.003204	
-0.034944	-0.028229	0.002289	-0.003204	
-0.037995	-0.042573	0.007782	-0.003510	
-0.037385	-0.029144	0.010834	-0.002289	
-0.027313	-0.011749	0.002594	-0.007172	
0.004730	0.007172	0.008698	0.001678	
0.007172	0.010529	0.004120	-0.009003	
0.004730	0.014496	0.005951	-0.008392	
-0.005341	0.009003	0.005035	-0.013275	
-0.003510	0.010834	0.009003	-0.007782	
-0.006866	-0.014801	0.008392	-0.012054	
0.005035	-0.033113	0.015411	-0.002899	
0.009613	-0.021210	0.016327	-0.010223	
0.016632	-0.002289	0.020294	-0.012970	
0.019989	0.014801	-0.001373	-0.009003	
0.017242	0.030365	-0.029144	-0.003510	
0.005035	0.020599	-0.027618	-0.000153	
-0.002289	0.006866	0.009003	-0.004425	
0.007782	0.026093	0.041352	-0.004120	
-0.001068	0.017242	0.009003	-0.008392	
0.011749	0.004425	0.037385	-0.000763	
0.016937	0.005951	0.037690	-0.007477	
0.029144	0.002289	0.009918	-0.001678	
0.013275	-0.008087	-0.010223	-0.014191	
0.004120	-0.003815	0.005341	-0.002289	
-0.007782	-0.005035	0.008087	-0.005646	
-0.011749	0.000153	0.008087	-0.009003	
-0.022125	-0.001373	0.006256	-0.011139	
-0.020294	0.004425	0.008698	-0.004425	
-0.036164	-0.002899	0.003815	-0.010529	
-0.041352	0.005035	0.008392	-0.008392	
-0.037080	-0.006256	0.008698	-0.009918	
-0.020905	-0.027008	0.005341	-0.010529	
0.008392	-0.020905	0.006866	-0.007782	
0.022125	-0.005341	0.004425	-0.009308	
0.030060	0.023346	0.008698	-0.002899	
-0.021210	0.028229	0.003815	-0.010529	
-0.072480	0.022125	0.010529	-0.000763	
-0.063020	0.032197	0.007782	-0.001068	
-0.035859	0.010529	0.009918	-0.001678	
-0.008087	-0.011749	0.002899	-0.011749	
0.031892	-0.015106	0.011139	0.000153	
0.034333	-0.023346	0.005341	-0.003815	
0.032502	-0.019073	0.008087	-0.005035	
0.037995	-0.034028	0.010529	-0.013580	
0.040437	-0.022430	0.009918	-0.010223	
0.023041	-0.009918	0.004730	-0.013275	
0.008392	0.020294	0.005951	-0.014191	
-0.005646	0.030975	0.009918	-0.011444	
-0.002289	0.028839	0.009918	-0.012054	
0.007782	0.038911	0.012665	-0.007172	
-0.012054	0.039216	0.012054	-0.005341	
-0.039216	0.028229	0.008698	-0.006256	
-0.035554	0.003815	0.006866	-0.005035	
-0.016937	0.016937	0.012665	0.000153	
-0.002899	0.013275	0.004730	-0.010223	
0.012970	-0.016327	0.009918	-0.005341	
0.004730	-0.028229	0.005341	-0.008087	
-0.010834	0.014801	0.011139	0.000153	
-0.036469	0.029144	0.004730	-0.006256	
-0.048371	0.031281	0.008698	-0.004120	
-0.063325	0.006866	0.007782	-0.003204	
-0.061189	0.003204	0.007782	-0.006866	
-0.051423	0.001678	0.006256	-0.009003	
-0.029449	0.004120	0.005951	-0.007477	
-0.002899	0.006256	0.008698	-0.007782	
0.012360	0.006561	0.011139	-0.009613	
0.027924	0.007782	0.012665	-0.006866	
0.042878	0.024261	0.009308	-0.005035	
0.066682	0.030365	0.016327	-0.003815	
0.065156	0.005646	0.007782	-0.009613	
0.063935	0.005646	0.017242	0.004120	
0.059358	-0.019379	0.002594	-0.009308	
0.058747	-0.027924	0.010223	-0.002899	
0.012360	-0.072175	0.010834	-0.003510	
-0.027924	-0.088655	0.007172	-0.000763	
-0.078584	-0.074311	0.005341	-0.007477	
-0.090180	-0.040132	0.009003	-0.000153	
-0.075837	-0.008392	0.008392	-0.002289	
-0.055085	0.016022	0.005035	-0.000763	
-0.029144	0.023041	0.005341	-0.004425	
-0.007782	0.020905	0.004730	-0.005646	
0.006561	0.025177	0.009308	-0.008087	
0.005646	0.032197	0.009003	-0.004120	
-0.003815	0.035249	0.010529	-0.004120	
-0.014801	0.023956	0.007782	-0.009308	
-0.013275	0.030670	0.012970	-0.002899	
-0.010223	0.020599	0.008698	-0.011444	
0.005646	0.028229	0.012665	-0.002899	
-0.001068	0.006561	0.002594	-0.008392	
-0.009613	-0.035859	0.004730	-0.014496	
