NO_OF_SAMPLES	28800
TOT_NO_OF_CHAN	4
FREQUENCY	960.000000
NO_OF_CALC_CHAN	0
TIME_STAMP	2020-02-08, 11:29:21	226839.36048560
FIRST_SAMPLE	1
DESCRIPTION	--
DATA_INCLUDED	Analog
CHANNEL_NAMES	Vastus Lateralis	Vastus Medialis	Tibialis Anterior	Lateral Gastroc
CHANNEL_GAIN	1	1	1	1
FP_LOCATION
FP_CAL
FP_GAIN
Vastus Lateralis	Vastus Medialis	Tibialis Anterior	Lateral Gastroc	
-0.011749	-0.182040	-0.196994	-0.010223	
-0.045625	-0.172275	-0.244602	-0.005951	
-0.058442	-0.105745	-0.066072	-0.005646	
-0.060578	-0.033723	-0.106050	-0.006866	
-0.045014	0.008087	0.136568	-0.005035	
-0.027313	0.059968	0.309911	0.006561	
-0.014801	0.077363	0.154268	-0.011139	
0.159457	0.128633	-0.083161	-0.009308	
0.114901	0.138704	-0.001678	-0.010529	
-0.002289	0.097811	0.093537	0.002289	
-0.001373	0.066377	0.007782	0.000153	
-0.008392	0.071565	0.079194	-0.005341	
-0.031892	0.039216	0.060273	-0.007477	
-0.055696	-0.023956	0.016937	-0.005646	
-0.070954	-0.042268	-0.031587	-0.012054	
-0.037690	-0.004425	-0.024567	-0.007782	
-0.019073	0.022736	0.005341	-0.004120	
-0.023956	0.026093	0.029144	-0.001984	
-0.029449	0.028839	-0.021515	-0.004425	
-0.034333	0.017853	-0.103914	-0.005035	
-0.031587	-0.001068	-0.156405	0.003204	
-0.012360	0.010223	-0.217135	-0.007172	
0.016327	0.052033	0.126192	-0.002899	
0.018463	0.082856	0.284886	-0.010529	
0.027924	0.094149	0.086213	-0.006256	
0.021210	0.056611	0.018158	-0.010529	
0.026398	0.030975	0.081025	0.007172	
0.007172	0.011749	0.034028	-0.003204	
0.005035	0.005646	-0.107882	-0.006256	
0.013275	0.000153	-0.096895	-0.013580	
0.009918	-0.009308	-0.067903	-0.010223	
-0.010834	-0.004425	-0.476540	-0.007477	
-0.001068	0.011749	-0.389257	0.006256	
-0.003815	0.001678	0.198215	0.018158	
-0.003815	-0.006256	0.103609	0.006866	
-0.000763	-0.005951	-0.334935	-0.005646	
-0.012054	-0.019379	0.370642	-0.004120	
-0.013580	-0.044404	0.738079	0.002289	
-0.003204	-0.081941	0.404821	-0.015106	
0.059968	-0.099947	0.074922	-0.010223	
0.200351	-0.112459	-0.373083	-0.007172	
0.132601	-0.081635	-0.373388	0.005951	
-0.107576	-0.061799	0.061799	0.002899	
-0.182040	-0.009308	0.337682	0.008392	
-0.201571	0.040437	0.266880	-0.016632	
-0.142061	0.076447	0.142061	-0.014496	
-0.060578	0.080720	0.136263	-0.014191	
-0.015411	0.096285	0.036775	-0.016327	
-0.001678	0.125582	-0.027618	-0.018158	
0.019684	0.145113	-0.026093	-0.009918	
0.027008	0.113070	-0.000153	-0.013580	
0.020905	0.028839	-0.007477	-0.011749	
0.005035	-0.077668	-0.050508	-0.008392	
-0.029755	-0.124056	-0.139009	-0.011749	
-0.007782	-0.104219	-0.162814	-0.007477	
0.013275	-0.077363	-0.083161	-0.009918	
-0.008087	-0.072480	0.195773	-0.003204	
0.002899	-0.072785	0.047761	-0.011749	
0.034944	-0.049897	-0.211642	-0.005035	
0.054780	-0.044404	-0.057527	-0.002899	
0.060884	-0.004120	0.047151	-0.005646	
0.050202	0.012970	-0.061494	-0.015717	
0.029755	0.030975	-0.152742	0.000763	
-0.140535	0.008698	-0.108797	-0.009308	
-0.047761	-0.005646	-0.017853	-0.010223	
0.102694	0.031892	0.184482	-0.006256	
0.092011	0.115206	0.143892	-0.005646	
0.032197	0.182956	-0.113985	-0.010223	
-0.007172	0.180820	0.099947	-0.006256	
-0.007477	0.088655	-0.002289	0.008087	
-0.027008	-0.063935	-0.028229	0.005035	
-0.016327	-0.115511	-0.137789	-0.008087	
0.001984	-0.083467	-0.225986	-0.013580	
0.006561	-0.043489	-0.009003	-0.006866	
-0.023346	-0.050202	0.127718	-0.015106	
-0.032502	-0.077668	0.053864	-0.005646	
-0.023346	-0.088655	0.120394	-0.015106	
-0.008087	-0.056001	0.058747	-0.003204	
-0.018158	-0.035249	-0.023346	-0.006866	
-0.017853	-0.009308	-0.097200	-0.005951	
-0.047151	-0.002289	-0.381323	-0.007172	
-0.031281	0.033418	-0.096590	-0.006866	
-0.014191	0.066072	0.329442	-0.009003	
-0.000763	0.038606	0.291600	-0.002899	
0.010223	-0.033723	0.230259	-0.007172	
0.008087	-0.038301	-0.124361	-0.008087	
0.005035	-0.023651	-0.502174	-0.012970	
-0.013580	0.002594	-0.360876	-0.006256	
-0.023956	0.022430	0.331578	0.012970	
-0.025787	0.018768	0.130465	0.005341	
-0.014801	0.030975	0.139620	-0.003510	
-0.018158	0.022736	0.390783	-0.020294	
-0.009613	0.044099	0.342259	-0.016327	
-0.001373	0.062104	0.274815	-0.007172	
-0.001068	0.079194	0.033113	-0.001678	
-0.012970	0.084382	-0.098116	-0.013580	
-0.012970	0.072785	-0.157626	-0.007782	
0.007782	0.046540	-0.035554	-0.005035	
-0.016937	0.069428	0.158237	-0.007172	
0.004120	0.118868	0.082856	-0.006256	
0.117037	0.097811	-0.071870	-0.009003	
0.061189	0.028229	0.064851	-0.006256	
-0.007172	-0.092622	0.155489	-0.010223	
-0.035249	-0.166171	0.166476	0.003204	
-0.025482	-0.134432	0.034333	-0.005035	
0.003204	-0.085908	-0.224766	-0.004425	
-0.005035	-0.050202	-0.213168	-0.009918	
-0.058137	-0.017242	-0.177768	-0.001068	
-0.103304	0.016022	-0.197604	-0.002899	
-0.119783	0.085298	-0.208285	-0.005035	
-0.066377	0.070039	-0.082246	-0.009918	
0.015106	0.004120	0.057832	-0.000763	
0.029144	-0.051728	0.192416	-0.003204	
0.028839	-0.070344	0.008087	0.005341	
0.044404	-0.028534	-0.041963	0.005035	
0.063325	0.005951	0.022125	-0.007782	
0.183566	0.005951	-0.240940	-0.007172	
0.131380	-0.009613	-0.129244	-0.000763	
-0.043183	0.004425	0.295262	0.007172	
-0.149996	0.031892	0.123140	0.002289	
-0.193637	0.046235	0.006866	-0.009308	
-0.114290	0.038911	0.121920	-0.011749	
-0.043489	0.016022	0.060578	-0.009918	
0.018768	-0.012970	-0.021820	-0.011444	
0.081941	0.014496	-0.131380	0.002899	
0.092317	0.054475	-0.412147	-0.011444	
0.065156	0.074311	-0.289464	0.000153	
-0.064240	0.060578	-0.000153	-0.004425	
-0.018463	0.074616	0.055696	0.002594	
0.041963	0.026398	0.344397	-0.000763	
0.037690	-0.025787	0.149691	-0.010529	
0.027924	-0.045320	0.229649	-0.008392	
0.000458	-0.062715	0.164035	-0.004120	
0.021210	-0.059663	-0.035554	-0.004120	
0.037690	-0.069123	-0.115511	-0.002289	
0.027924	-0.095369	-0.190280	-0.007477	
0.033723	-0.079194	-0.122530	-0.008087	
0.024872	-0.041963	0.379187	-0.005646	
0.001984	-0.006256	0.206759	-0.009003	
-0.027618	0.020905	0.006256	-0.006256	
-0.064240	0.023041	0.410010	-0.005646	
-0.043183	0.026398	0.362402	-0.001984	
-0.019073	0.034638	0.059358	-0.004120	
-0.013580	0.059358	-0.073701	-0.000763	
-0.024872	0.062715	-0.199435	-0.004425	
0.006866	0.036164	-0.244602	-0.005341	
0.012360	-0.008087	0.041352	-0.013580	
0.018463	-0.011749	0.057221	-0.003510	
0.027924	-0.035859	0.005341	-0.017242	
0.014801	-0.029449	0.070039	-0.013885	
0.004120	0.009918	-0.028229	0.000153	
-0.014801	0.026398	-0.011444	0.010834	
-0.039521	0.000153	-0.050508	0.004425	
-0.045014	-0.044404	-0.301366	-0.005341	
-0.051118	-0.049287	-0.178683	-0.009918	
-0.054170	-0.009308	0.007172	-0.002899	
-0.026398	0.039216	-0.037690	-0.001373	
-0.011749	0.081330	-0.016327	-0.009613	
0.010223	0.117647	0.071259	-0.008392	
0.060273	0.090791	-0.198825	-0.006866	
0.018768	0.032502	-0.161288	0.002594	
-0.179294	-0.042573	-0.005646	-0.005035	
0.015106	-0.074311	0.038606	-0.003204	
0.140841	-0.035249	0.067292	-0.010223	
0.052033	0.001984	0.033418	-0.010529	
-0.017242	0.000458	0.015411	-0.008392	
-0.047456	0.000763	0.103914	-0.005951	
-0.049897	-0.038606	0.049287	-0.006866	
-0.037385	-0.055085	0.034028	-0.005035	
-0.017548	-0.018158	0.051728	-0.001678	
-0.015411	-0.005035	0.047151	-0.001373	
-0.026093	0.006256	0.039216	-0.002289	
-0.039826	0.000458	0.033113	-0.006866	
-0.028229	0.000153	0.040437	-0.003204	
-0.019073	-0.000153	0.025482	-0.014191	
-0.005646	0.003204	0.024567	-0.007172	
-0.000763	0.014496	0.021210	-0.008392	
0.014191	0.043183	0.014801	-0.007172	
0.026703	0.046845	0.013275	-0.006866	
0.046540	0.050508	0.018768	-0.003204	
0.049287	0.045320	0.021210	-0.007172	
0.032197	0.056611	0.033418	-0.000763	
0.023956	0.057527	0.045014	-0.007172	
0.022736	0.043183	-0.095369	-0.007172	
0.012360	0.006561	-0.418250	-0.010529	
-0.018463	-0.013885	-0.455787	-0.008087	
-0.007477	0.007172	-0.213168	0.004425	
0.034028	0.014496	-0.272984	0.002289	
0.030670	0.005646	0.333714	0.006561	
-0.029144	-0.035249	0.517738	-0.007782	
-0.051118	-0.080415	0.364843	-0.006256	
-0.062409	-0.085298	0.192111	-0.005035	
-0.042268	-0.065461	0.523842	0.007172	
-0.027924	-0.036164	0.375830	-0.008392	
-0.041352	0.022736	-0.060578	-0.008392	
-0.043183	0.060273	0.153963	-0.007477	
-0.032197	0.079194	0.085908	-0.001373	
-0.026093	0.075227	0.063630	-0.001678	
-0.011749	0.060884	-0.018158	-0.002899	
-0.000153	0.048371	0.008392	-0.003510	
-0.006256	0.026703	-0.030365	-0.000763	
0.006561	-0.051118	-0.023956	-0.014496	
0.045014	-0.070649	0.142672	-0.012054	
0.181735	-0.020905	0.204013	-0.012970	
0.218661	0.009003	0.086213	-0.011444	
0.053254	0.010529	-0.086518	0.004120	
-0.100252	-0.003204	-0.309300	0.002594	
-0.129854	-0.006866	-0.850996	0.000763	
-0.081025	-0.043183	-0.488441	-0.013580	
-0.052949	-0.066682	-0.247349	-0.012054	
-0.041963	-0.080110	0.040437	-0.023346	
-0.023956	-0.069123	0.004425	-0.009613	
-0.030975	-0.028534	-0.140535	-0.010223	
-0.023041	0.013885	-0.088349	-0.009308	
-0.024872	0.014801	0.113680	-0.005341	
-0.041047	0.029755	0.208285	-0.003204	
-0.028839	0.030670	0.081025	-0.009918	
-0.029755	0.044404	0.105440	-0.004425	
-0.111849	0.071259	0.136263	-0.005341	
-0.071565	0.092317	0.138399	-0.004425	
0.008698	0.078279	0.081025	-0.002899	
0.048066	0.001678	0.036775	-0.006866	
0.087434	-0.026398	0.038606	-0.001373	
0.031281	0.038911	0.037690	-0.002899	
0.058442	0.128633	0.058747	-0.001678	
0.051118	0.149996	0.022125	-0.004425	
0.048066	0.081025	-0.300450	-0.001678	
0.001984	0.013885	-0.613565	-0.003510	
-0.019073	-0.030975	-0.375219	0.001984	
0.016327	-0.084382	0.424354	0.000153	
0.011139	-0.130465	0.205234	0.008087	
-0.003815	-0.166476	0.191195	-0.011444	
0.021210	-0.123751	0.238499	-0.010529	
0.066072	-0.049897	0.404821	0.003815	
0.068513	0.002899	0.151827	0.008698	
0.060273	0.022736	0.051728	-0.000763	
0.041352	0.038911	0.092011	-0.021820	
0.012970	0.042878	0.348059	-0.004425	
-0.062409	0.032197	0.427405	-0.001678	
-0.034333	0.011139	-0.272984	-0.015106	
-0.001373	-0.015106	-0.259861	-0.017853	
-0.057832	0.008087	-0.159457	-0.004425	
-0.051728	0.049897	-0.181735	-0.012054	
0.017853	0.055085	0.024872	-0.005951	
0.030670	0.024567	0.046235	-0.005341	
0.007172	0.038911	-0.153963	-0.009918	
-0.042878	0.004425	-0.185702	-0.012970	
-0.079804	-0.037995	-0.198215	0.001678	
-0.092622	-0.092011	0.189059	-0.005951	
-0.083161	-0.107576	0.084687	-0.012970	
-0.058137	-0.083772	0.061494	-0.011749	
-0.022125	-0.006256	0.039521	-0.005035	
0.010223	0.056306	0.031281	-0.003510	
0.022125	0.053559	0.002899	-0.003204	
0.009003	0.004425	-0.016937	-0.008392	
-0.009613	-0.031587	-0.027313	-0.014191	
-0.013275	-0.049897	0.021210	-0.009003	
-0.026093	-0.027313	0.017242	-0.010529	
-0.010223	0.015106	0.037690	-0.010223	
0.000458	0.022736	0.057221	-0.017242	
0.014191	0.041047	-0.029755	-0.005035	
0.010529	0.052033	-0.231174	-0.013275	
-0.031587	0.086518	-0.412757	-0.005035	
-0.043489	0.123140	-0.204928	-0.005035	
0.040132	0.143282	-0.108797	-0.012360	
0.074922	0.120699	-0.389868	-0.014496	
0.052339	0.059052	-0.223240	-0.002899	
0.016937	-0.045930	0.580606	0.000763	
0.031281	-0.134127	0.572366	0.004120	
0.061799	-0.144808	0.614786	0.006866	
-0.067903	-0.089875	0.375219	-0.006866	
-0.125277	-0.007782	-0.284276	-0.010529	
0.001984	0.022125	-0.225376	-0.015717	
0.015106	0.040437	0.042573	-0.011749	
-0.009308	0.033418	-0.006866	-0.009613	
-0.008392	0.022430	0.009003	-0.001678	
0.004730	-0.012360	0.212253	0.003204	
0.022125	-0.032197	-0.458533	0.000153	
0.015106	-0.056306	-0.072480	-0.010529	
0.026398	-0.037995	0.540017	0.005035	
-0.001678	-0.041657	0.530251	-0.009003	
-0.029449	-0.041657	0.356298	-0.006256	
-0.063935	-0.038606	-0.277866	-0.008392	
-0.065766	-0.022430	-0.104525	-0.008087	
-0.031892	-0.010834	-0.103914	-0.006256	
0.019989	0.030670	-0.190890	-0.000763	
0.035859	0.064851	-0.019684	-0.005035	
0.030670	0.080110	-0.066682	-0.004425	
0.015106	0.070954	-0.023041	-0.008392	
0.022125	0.042573	-0.065461	-0.003510	
0.027924	0.026703	-0.049897	-0.003510	
0.012360	0.004120	-0.021820	-0.013275	
0.016632	0.011139	-0.032502	-0.006866	
0.133516	0.022736	-0.261082	-0.012970	
0.168918	0.018158	-0.479897	-0.001984	
0.009003	0.016022	-0.208285	0.005951	
-0.136568	0.015106	0.186618	0.013885	
-0.178683	-0.017242	0.220493	-0.010529	
-0.143282	-0.032502	0.132601	-0.015106	
-0.120699	-0.044404	0.242771	-0.007172	
-0.076447	-0.027313	0.184176	0.000458	
-0.038301	0.005035	-0.089875	-0.019073	
-0.007782	0.036775	-0.220188	-0.015106	
0.012054	0.055085	-0.060578	-0.003510	
0.006561	0.010529	0.218356	0.009308	
-0.023041	-0.021515	-0.136263	0.017242	
-0.046235	-0.026093	-0.215915	-0.004425	
0.036469	-0.000763	-0.008087	-0.012360	
0.017853	0.012665	0.165866	-0.016022	
-0.052033	0.023041	0.222630	0.004425	
-0.033113	0.034944	0.373693	-0.002289	
0.036469	0.069123	0.197909	-0.008087	
0.033723	0.048982	-0.022430	-0.009918	
0.029144	0.012360	-0.101473	0.000153	
0.034944	-0.001373	-0.066377	-0.015106	
0.024261	-0.077363	-0.114290	-0.009308	
0.043183	-0.140230	0.129854	-0.001984	
0.061799	-0.127413	0.053559	-0.001678	
0.053864	-0.090486	0.210116	-0.005951	
0.039216	-0.043794	-0.071870	-0.006256	
0.018463	-0.012970	-0.097811	-0.003510	
0.005646	0.004120	-0.335851	-0.013275	
0.007172	0.032502	-0.409705	-0.011749	
0.001678	0.032502	-0.078279	-0.001678	
-0.010223	0.028229	0.086823	0.008087	
-0.013275	0.019989	0.583352	0.012665	
0.003204	0.028839	0.175021	-0.001678	
0.018463	0.036775	-0.002289	-0.021820	
0.070954	0.049287	0.001068	-0.006866	
0.013885	0.098421	0.087434	-0.011444	
-0.070954	0.125887	0.088044	-0.009918	
-0.077668	0.091706	-0.022430	-0.013580	
-0.049897	0.062104	-0.123446	-0.006256	
-0.063935	0.020294	-0.054170	-0.010223	
-0.111544	-0.035554	0.200961	-0.001678	
-0.113375	-0.116121	0.073701	-0.007477	
-0.052339	-0.128023	-0.238499	-0.012054	
-0.013580	-0.101473	-0.285192	-0.017853	
0.007172	-0.072480	0.086213	0.001678	
-0.003204	-0.041047	0.128328	0.005341	
0.061189	-0.015106	-0.073091	-0.018158	
0.069123	0.048676	-0.038301	-0.006866	
-0.000763	0.097811	-0.099337	-0.013885	
0.008698	0.117647	-0.026398	-0.009918	
0.052339	0.134737	-0.094149	-0.007172	
0.124361	0.115206	0.058747	-0.005035	
0.132296	0.048066	0.140535	-0.013580	
0.052033	-0.027313	0.090791	-0.007172	
0.018768	-0.076142	0.065156	-0.011749	
-0.005341	-0.056611	0.030060	-0.006256	
-0.108187	-0.038301	0.019379	-0.010529	
-0.162814	-0.025787	0.034944	-0.001678	
-0.196383	-0.047456	-0.011139	-0.005646	
-0.184176	-0.079804	-0.071870	-0.002899	
-0.010223	-0.038301	-0.060578	-0.002289	
0.184482	0.028839	-0.009918	-0.002899	
0.214999	0.069428	0.093232	-0.003510	
0.053864	0.066377	0.067597	-0.009918	
-0.117647	0.001068	-0.062715	-0.003204	
-0.153353	-0.052339	-0.143282	-0.010223	
-0.136263	-0.028229	-0.039216	-0.007782	
-0.151522	0.014801	0.495766	-0.009003	
-0.214694	0.017242	0.366980	0.000458	
-0.085908	0.013885	0.063630	0.008392	
0.046540	0.082551	-0.355383	0.010223	
0.062409	0.121309	-0.442969	-0.002899	
0.076447	0.054170	-0.340428	-0.004425	
0.074311	-0.029144	-0.567178	-0.009003	
0.088960	-0.045930	-0.167392	-0.002899	
0.068513	-0.048676	0.224155	0.005951	
0.049287	-0.001068	0.557107	0.006561	
0.054475	0.033113	0.853132	0.009308	
0.054780	0.006561	0.272678	-0.013580	
0.034333	0.000458	-0.084687	-0.011139	
0.016937	-0.029449	0.026093	-0.013580	
0.037995	-0.066072	0.109102	-0.015411	
0.026093	-0.071870	-0.004425	-0.020294	
0.006866	-0.084382	-0.039521	-0.003204	
-0.016937	-0.080110	-0.015106	0.009918	
-0.015411	-0.024261	-0.295262	0.000763	
-0.029449	0.018768	-0.070344	-0.016632	
-0.052033	0.050508	0.100252	-0.004120	
-0.047151	0.043489	-0.189364	-0.015106	
-0.003204	0.014191	-0.034638	-0.006866	
0.002289	-0.011444	-0.183566	-0.007172	
0.001068	-0.021515	0.226902	-0.009308	
-0.007477	-0.024261	0.210116	-0.003510	
-0.005341	0.000763	0.021210	-0.008392	
0.013275	0.040437	0.077363	-0.008392	
-0.027008	0.065461	-0.073701	-0.003204	
-0.103914	0.080110	-0.205234	-0.004425	
-0.081941	0.074616	-0.359045	-0.009308	
-0.034944	0.087129	-0.022430	-0.001678	
0.056611	0.062104	0.065156	0.000458	
0.084687	-0.003510	-0.110323	-0.004425	
0.062715	-0.025177	0.255589	-0.012054	
0.008087	-0.009613	0.137789	-0.001373	
0.021820	-0.009613	0.011749	-0.000763	
0.033723	-0.011444	-0.215915	0.006561	
0.012360	-0.019073	-0.302892	-0.010223	
-0.005951	-0.016937	-0.049897	-0.004120	
0.013275	-0.032197	-0.231785	-0.001068	
0.048676	-0.001373	0.630350	0.004730	
0.038301	0.007172	0.555886	-0.001984	
0.030365	-0.008087	0.038606	-0.012970	
0.009613	-0.026398	-0.341649	-0.003510	
-0.015411	-0.030060	-0.078584	-0.005035	
-0.022430	-0.008392	0.290990	-0.011444	
-0.034028	0.010529	0.338902	-0.013580	
-0.036164	0.058747	0.153658	-0.001984	
-0.035554	0.048066	0.058747	-0.007172	
0.004425	-0.003510	0.024261	-0.003815	
0.004730	-0.024261	-0.025482	-0.005035	
0.002899	-0.017853	-0.060578	-0.004425	
-0.000153	-0.004120	-0.077973	-0.011444	
0.022430	0.028229	-0.027924	-0.011749	
0.019989	0.022736	0.057832	-0.013580	
-0.003815	0.013885	-0.059663	-0.011444	
-0.045320	-0.003510	-0.174716	-0.018463	
-0.054475	-0.005646	0.044709	0.006866	
-0.043489	-0.009003	0.263828	0.010223	
-0.055696	-0.017548	-0.011749	-0.009613	
-0.054170	-0.001984	-0.256809	-0.016632	
-0.061189	0.009308	-0.363317	-0.020599	
-0.037690	0.013275	-0.143892	-0.001984	
0.039826	0.023346	-0.052949	-0.005951	
0.195468	0.033418	-0.055390	-0.003204	
0.096895	0.017853	0.002899	-0.006866	
-0.061494	-0.004120	0.061494	-0.002899	
-0.146639	-0.019379	0.042268	-0.010223	
-0.132601	-0.006256	0.074616	0.006256	
-0.117342	-0.007477	-0.009308	0.008392	
-0.088044	-0.006866	-0.295262	0.003815	
-0.055390	-0.015411	-0.186313	-0.009918	
-0.039216	0.006256	-0.023956	-0.007172	
-0.029449	0.021820	0.056611	-0.007172	
0.013275	0.042573	-0.012054	-0.005035	
0.034028	0.023346	-0.127413	-0.010223	
0.042268	0.010223	0.550393	-0.002899	
0.052949	-0.006866	0.474709	-0.005035	
0.059358	-0.011444	-0.122530	-0.007782	
0.045014	-0.001373	0.169833	-0.006256	
0.020294	0.007782	0.348059	0.000153	
0.039826	0.057221	0.308385	0.005951	
0.045014	0.063325	-0.041352	-0.006866	
0.042573	0.038301	-0.232395	-0.003204	
0.010834	-0.004120	-0.052949	-0.013580	
-0.003510	-0.021515	0.250401	-0.016327	
-0.025482	-0.009918	0.159762	-0.014496	
-0.072480	-0.013885	-0.339513	-0.005951	
-0.066072	-0.016022	-0.496681	-0.012054	
-0.001373	-0.014191	-0.171054	-0.005035	
0.031281	-0.001678	0.073091	-0.004425	
0.042268	0.028839	0.512245	-0.002289	
0.013275	0.039826	0.081635	0.000153	
0.062409	0.039216	-0.336766	-0.003510	
0.111544	0.034638	-0.121004	-0.011444	
0.058137	-0.041657	-0.142672	-0.012054	
0.019073	-0.074616	-0.212558	0.001068	
-0.022430	-0.035249	0.143892	-0.010529	
-0.011139	-0.013885	-0.036469	-0.015717	
-0.044404	-0.010834	0.225376	-0.013885	
-0.074311	-0.031892	0.143587	-0.000763	
-0.070954	-0.089875	-0.148775	-0.005035	
-0.059968	-0.095675	0.305943	0.002289	
-0.076447	-0.072175	-0.012970	-0.013580	
-0.083772	-0.033418	-0.216525	-0.005341	
-0.051423	-0.019684	-0.118868	0.001678	
-0.012360	-0.024261	0.206149	0.001678	
-0.006256	0.014801	0.308995	-0.004425	
-0.008087	0.059968	0.168612	0.005035	
-0.020905	0.087739	0.214999	0.001068	
0.007782	0.111849	0.030060	-0.010529	
-0.000763	0.100557	-0.052339	-0.002899	
-0.095675	0.065461	-0.177768	-0.007782	
0.110323	0.038911	-0.268406	-0.005035	
0.179599	0.020599	-0.392004	-0.010529	
0.125582	0.026703	0.053559	-0.002289	
0.076753	-0.001373	0.211947	-0.009918	
0.049287	-0.015717	0.152437	-0.004120	
0.010834	-0.020905	0.142061	-0.011139	
-0.016022	0.013275	0.096285	0.004120	
-0.033113	0.046235	-0.025787	-0.003510	
-0.039826	0.065461	-0.048676	-0.006256	
-0.048066	0.032197	-0.139315	-0.004120	
-0.059358	-0.021515	-0.096285	-0.008087	
-0.063325	-0.061494	-0.011749	-0.000763	
-0.056306	-0.080415	0.066377	0.008698	
-0.036469	-0.057527	0.144503	0.002899	
-0.087129	0.043183	-0.160983	-0.007172	
-0.080110	0.138399	-0.133516	-0.002899	
0.072480	0.108187	0.083161	-0.008392	
0.110628	-0.047761	0.216220	-0.011749	
0.058747	-0.178073	-0.149996	-0.023346	
0.034333	-0.182956	-0.240330	-0.003510	
-0.007172	-0.153963	0.004425	0.010834	
-0.026398	-0.093843	0.053254	0.010223	
-0.030365	-0.029144	-0.071565	-0.017548	
-0.007782	0.026093	0.067597	-0.012054	
-0.011444	0.042878	0.070039	-0.009613	
-0.024872	0.066682	0.069123	-0.005646	
-0.104219	0.062104	0.103914	-0.012054	
-0.120699	0.080415	0.160983	0.000458	
0.010529	0.064240	-0.169223	-0.002899	
0.096285	0.056306	0.077058	-0.011749	
0.186313	0.085603	-0.022430	-0.009003	
0.251316	0.099337	-0.112764	-0.012360	
0.122835	0.089570	-0.099031	-0.005035	
-0.053559	0.092317	-0.014496	-0.009308	
-0.147860	0.091401	-0.033113	-0.004120	
-0.153963	0.115511	-0.112459	-0.009003	
-0.130465	0.149080	0.176852	-0.009003	
-0.102694	0.092317	0.491798	-0.011139	
-0.061494	-0.016937	0.018463	-0.005646	
-0.055696	-0.105745	-0.201266	-0.012360	
-0.074006	-0.147554	-0.292211	-0.007172	
-0.088044	-0.158237	-0.263523	-0.005646	
-0.117342	-0.163119	0.260777	-0.005035	
-0.102694	-0.190890	0.341649	-0.013275	
-0.025482	-0.193942	0.448768	-0.011749	
0.060884	-0.118563	-0.095064	-0.000763	
0.112154	-0.019989	-0.177768	0.000458	
0.104830	0.036469	-0.050813	-0.005035	
0.094149	0.060273	0.189975	-0.005035	
0.097506	0.050813	0.085298	-0.003510	
0.103304	0.049287	-0.014191	-0.013275	
0.094149	0.095369	-0.081635	-0.013275	
0.032807	0.125277	0.024261	-0.017853	
0.009918	0.076753	0.180820	0.004120	
-0.036469	-0.037080	0.333409	0.008392	
-0.056001	-0.088044	0.143587	0.020905	
-0.067597	-0.057832	-0.358130	-0.009918	
-0.056916	0.007782	-0.553750	-0.016327	
-0.045625	0.055085	-0.685588	-0.011444	
-0.059968	0.051423	-0.267796	0.002899	
-0.059052	-0.009003	0.308080	0.017242	
-0.019379	-0.058137	0.375830	-0.002289	
0.013885	-0.077363	0.238499	-0.016022	
0.024872	-0.074311	0.113375	-0.015411	
0.022125	-0.058442	0.141146	-0.011749	
0.014496	-0.012054	0.107576	-0.010223	
-0.010223	0.030975	0.040437	-0.001373	
-0.035249	0.063020	0.007172	0.000763	
-0.071565	0.064240	0.053559	-0.011444	
-0.019073	0.056611	-0.062715	-0.019989	
0.016937	0.058137	-0.179599	-0.005646	
-0.031281	0.054475	-0.154879	-0.006866	
-0.105745	0.056306	0.267185	-0.004425	
-0.077668	0.051118	0.055085	-0.009003	
0.076447	0.053254	-0.554971	-0.006256	
0.155184	0.021210	-0.183871	-0.014191	
0.181125	0.028839	0.325780	-0.001678	
0.144808	0.028839	0.172275	-0.007172	
0.106661	0.004425	0.061494	-0.013275	
0.042268	-0.065461	0.049287	-0.010223	
0.001984	-0.090486	0.041657	-0.009308	
-0.021820	-0.062715	0.051423	-0.009308	
-0.024261	-0.033113	0.013275	-0.007782	
-0.010834	-0.017853	-0.073091	-0.004120	
-0.013885	0.006866	-0.204928	-0.009918	
0.006561	0.046235	-0.144808	-0.012970	
0.003815	0.063020	0.113375	-0.006866	
0.002289	0.051118	0.131990	-0.001984	
-0.020294	0.038301	0.116121	-0.006256	
-0.023346	0.070649	0.060273	0.006866	
0.008698	0.066377	0.086213	-0.000763	
-0.037080	0.026398	0.061494	-0.000763	
-0.066987	-0.020294	-0.346838	0.003204	
-0.052339	-0.036469	-0.008392	0.016327	
-0.030060	-0.020905	0.129244	-0.009918	
-0.034333	-0.010223	-0.373999	-0.017548	
-0.037080	-0.058442	-0.440223	-0.014191	
-0.029144	-0.072785	0.321202	-0.005341	
-0.025482	-0.059052	0.577249	-0.001984	
-0.019073	-0.060273	0.379797	-0.000763	
-0.014801	-0.038606	-0.064851	-0.017242	
-0.013580	0.010223	0.043183	-0.019989	
-0.072480	0.054780	0.105135	-0.011139	
-0.106050	0.053254	0.107576	-0.021515	
-0.038911	0.050202	0.065461	-0.012360	
0.000763	0.038911	-0.096590	-0.005951	
0.044404	0.024872	-0.176242	0.005341	
0.043794	0.009308	-0.227512	-0.002899	
0.045320	0.022430	-0.054475	0.007172	
0.054780	0.018768	-0.102999	-0.004120	
0.048066	0.029144	-0.141146	0.000153	
0.030975	0.044404	-0.228428	-0.002899	
0.030365	0.069123	0.128328	-0.000763	
0.032197	0.075532	0.424659	-0.000763	
0.038301	0.048676	0.138399	-0.008392	
0.151522	-0.032502	0.172580	-0.005951	
0.167087	-0.098421	0.073396	0.000153	
0.036775	-0.062104	0.121920	-0.001068	
-0.069428	0.008087	-0.003815	-0.007172	
-0.088044	0.072785	-0.172580	-0.007172	
-0.125887	0.052949	-0.064546	-0.011749	
-0.083467	-0.053864	0.070954	0.005035	
-0.107882	-0.189364	-0.101473	-0.009613	
-0.101473	-0.211337	-0.247349	-0.007477	
-0.093232	-0.175326	-0.280003	-0.009613	
-0.074006	-0.071870	0.077973	0.000153	
-0.063630	0.033113	0.392614	-0.007782	
-0.060578	0.076447	-0.038301	-0.005646	
-0.039826	0.054780	0.194247	0.000763	
0.002899	0.022125	0.026093	0.006866	
0.026398	-0.017548	-0.074922	0.002899	
0.023041	-0.018158	0.232700	-0.002899	
0.012360	0.019989	-0.201877	-0.013885	
0.024261	0.050202	-0.466163	-0.014191	
0.025787	0.062104	-0.167392	-0.005951	
0.041352	0.070954	0.115206	-0.007782	
0.041352	0.084382	0.008087	-0.002899	
0.039216	0.080110	-0.009613	-0.021515	
0.066072	0.066682	0.274204	-0.009918	
0.099947	0.022430	0.418860	-0.007172	
0.125582	-0.003815	-0.077973	-0.000153	
0.092927	-0.022125	-0.136263	-0.011749	
-0.035249	-0.004120	-0.080415	-0.007477	
-0.141756	-0.018463	0.074616	-0.016327	
-0.121920	-0.034944	0.016327	-0.004425	
-0.109102	-0.044099	-0.052644	-0.007782	
-0.091706	-0.043794	-0.109407	-0.010223	
-0.047151	-0.001068	-0.110018	-0.010529	
-0.005951	0.062409	0.230564	-0.005035	
-0.021210	0.110323	0.254978	0.001068	
-0.042878	0.135347	0.023956	-0.014191	
-0.045625	0.128328	-0.012054	-0.012054	
-0.005951	0.008698	-0.006866	-0.009308	
0.013275	-0.112154	-0.017242	0.002289	
-0.110323	-0.173800	-0.264744	0.003815	
-0.101778	-0.150301	-0.364843	0.009308	
-0.002289	-0.107576	-0.229954	-0.005646	
0.024872	-0.026093	0.312352	-0.005035	
0.014191	0.052339	0.399939	-0.005646	
-0.018463	0.065156	0.021210	-0.006256	
-0.035554	0.012054	-0.224461	-0.019684	
-0.027618	-0.037080	-0.104219	-0.008392	
0.001984	-0.040437	-0.017242	0.002289	
0.066072	0.000458	0.406653	0.016022	
0.089265	0.037995	0.400244	0.001068	
0.086823	0.081025	0.113375	-0.017853	
0.055085	0.121004	-0.045625	-0.019379	
-0.131990	0.121614	-0.164950	-0.009918	
-0.258030	0.122835	0.060578	-0.011749	
-0.012970	0.083161	0.062409	-0.012054	
0.258335	0.079194	0.047761	0.000153	
0.259251	0.083467	-0.063020	-0.006866	
0.221409	0.020294	-0.219883	-0.007477	
0.289769	0.005646	-0.411841	-0.009003	
0.141146	0.040742	-0.245823	-0.001678	
-0.051118	-0.009308	0.160373	-0.003510	
-0.037385	-0.059663	0.291600	-0.007782	
0.062409	-0.117647	0.080110	-0.001984	
-0.056306	-0.145113	0.232700	-0.006256	
-0.212558	-0.203097	0.098726	-0.022736	
-0.247959	-0.170444	0.010223	-0.012054	
-0.217746	-0.067903	-0.070039	-0.010223	
-0.170138	-0.005951	-0.256199	-0.007172	
-0.085908	0.039216	-0.236668	0.006866	
-0.025177	-0.005341	-0.173495	0.005035	
0.041352	-0.031281	0.115206	0.002289	
0.097506	-0.025177	-0.184787	0.000153	
0.138399	0.000153	-0.051423	0.003815	
0.086823	-0.001678	-0.069734	-0.000763	
0.031892	0.002289	0.378271	0.003204	
-0.043489	0.012970	0.184482	-0.001678	
-0.074311	-0.027008	0.130465	-0.000153	
-0.064240	-0.098726	0.056611	-0.014191	
-0.039826	-0.099947	-0.170749	-0.007477	
-0.010834	-0.034333	-0.093843	-0.016632	
0.071870	0.075227	0.072785	-0.011444	
0.043794	0.099337	0.520485	-0.000153	
-0.019379	0.094149	-0.000763	-0.012054	
-0.036469	0.091401	-0.269932	-0.013275	
-0.043489	0.078584	0.218967	-0.005035	
-0.036164	0.058442	0.085603	-0.006256	
-0.027618	0.037385	0.119173	-0.016022	
0.010529	0.060884	-0.032502	-0.013580	
0.016937	0.099642	0.040132	-0.014496	
-0.041657	0.108797	0.102388	-0.003204	
-0.071259	0.085603	-0.032197	-0.013580	
-0.005035	0.038606	-0.137789	-0.003204	
0.031892	-0.019073	-0.081635	-0.001984	
0.025177	-0.029755	-0.024261	0.003204	
0.003204	-0.033113	0.028534	-0.010223	
0.001984	-0.030365	0.054475	-0.013275	
-0.011444	-0.034333	0.100252	-0.015717	
-0.011139	-0.046235	0.027008	-0.010223	
-0.000153	-0.028534	-0.048371	-0.003510	
0.020905	-0.006256	-0.090486	-0.003510	
0.017853	0.003815	-0.080720	-0.011749	
-0.046540	0.027313	-0.049897	-0.006256	
-0.072480	0.060578	0.013275	-0.003815	
-0.046540	0.052339	0.034333	-0.006256	
-0.019989	0.005035	0.103914	0.006561	
-0.001068	-0.040132	0.060578	0.006256	
0.025177	-0.061494	-0.157016	0.001678	
0.039216	-0.052033	-0.136263	-0.009918	
0.034028	-0.027313	-0.121004	-0.009613	
0.010834	-0.015106	-0.142977	-0.013580	
0.003815	-0.003510	-0.115206	0.008392	
-0.049592	-0.018158	-0.192416	0.009308	
-0.059052	-0.012054	-0.762188	0.002899	
-0.075837	-0.009003	-0.577249	-0.010529	
-0.071565	0.004730	0.935836	0.004120	
-0.042878	0.023956	0.764629	0.003815	
-0.023041	0.055085	0.398413	-0.006256	
-0.013275	0.045320	-0.110018	-0.016022	
0.012665	0.031892	-0.235752	-0.022430	
0.018768	0.020599	0.240635	-0.008087	
-0.009613	0.001068	0.630350	0.006866	
0.055085	0.018768	0.075837	-0.002899	
0.144503	0.058442	0.012970	-0.027618	
0.131380	0.047456	-0.207370	-0.008392	
0.050813	-0.047456	-0.163730	0.001678	
-0.006866	-0.110018	0.114901	0.008392	
-0.033418	-0.057832	0.034028	-0.005951	
-0.033723	0.042573	-0.308385	-0.002899	
-0.036164	0.098421	-0.071565	-0.006256	
-0.015411	0.095675	-0.045625	-0.004425	
-0.024872	0.012970	0.101778	-0.002899	
-0.000153	-0.081941	0.093537	-0.010223	
0.075227	-0.090486	-0.014496	-0.007782	
0.178683	-0.037080	0.120394	0.001068	
0.138094	-0.012360	0.073091	0.005341	
-0.051728	-0.005341	-0.197909	-0.004120	
-0.218356	-0.027924	-0.020294	-0.012970	
-0.141756	-0.129854	-0.198215	-0.009003	
-0.102083	-0.172275	-0.000153	-0.003510	
-0.039216	-0.061799	0.214084	-0.009003	
-0.029144	0.041047	0.206149	-0.007172	
-0.016937	0.056306	0.162509	-0.014191	
0.013275	0.041963	0.139315	-0.013275	
0.015106	0.027924	-0.009003	-0.012970	
0.014801	0.030975	-0.201571	-0.000153	
0.002899	0.008087	-0.223240	0.000763	
0.022430	-0.005341	-0.561685	0.014496	
0.036469	-0.004120	-0.214084	-0.009308	
0.042878	0.037995	0.313268	-0.007477	
0.036775	0.054780	-0.053559	0.010223	
0.028534	0.056611	0.283666	0.002594	
0.013275	0.079499	0.244297	-0.016327	
-0.029449	0.052644	0.226597	-0.016327	
-0.147554	0.036469	0.247349	-0.010529	
-0.141451	0.036469	0.155794	-0.011444	
-0.027008	0.069123	0.042268	-0.003510	
0.056001	0.102388	0.049287	-0.003510	
0.147249	0.066377	-0.112154	-0.008392	
0.174716	0.005646	-0.153353	-0.008392	
0.153048	-0.020905	-0.066377	0.003204	
0.122225	-0.052644	-0.046540	-0.014191	
0.071259	-0.050202	-0.064240	-0.000153	
-0.003815	-0.031587	-0.132906	-0.012970	
-0.051728	0.029144	-0.182040	-0.003815	
-0.082551	0.045930	0.106050	-0.002899	
-0.092317	0.037995	0.159457	0.001678	
-0.088655	-0.028229	-0.182956	-0.001984	
-0.042878	-0.124666	0.001678	-0.007477	
0.006561	-0.148165	0.044404	-0.005646	
0.014191	-0.085603	0.000458	-0.009613	
-0.001068	-0.003510	0.024872	-0.016022	
-0.036164	0.040132	-0.050508	-0.013580	
-0.098421	0.054780	-0.085908	-0.010529	
-0.157626	0.048982	-0.042268	-0.015411	
-0.077058	0.023041	0.152132	-0.012054	
-0.034028	-0.017548	0.144808	-0.016022	
-0.005646	-0.010834	-0.206149	-0.009613	
0.009918	-0.015411	-0.145418	-0.014191	
0.033723	0.003204	0.032197	-0.003510	
0.050202	0.003815	0.061799	-0.002289	
0.114901	-0.005951	-0.004425	0.003815	
0.129244	-0.005646	0.153963	0.001068	
0.059052	-0.014191	0.151522	0.002899	
-0.073701	-0.040132	0.073396	-0.006866	
-0.099947	-0.050202	0.083772	-0.007477	
-0.084382	-0.066072	-0.098421	0.001678	
-0.063020	-0.034028	-0.151522	-0.000763	
0.067903	0.061189	-0.185702	-0.002899	
0.037080	0.108187	-0.357824	-0.011444	
-0.015106	0.078584	-0.132601	-0.000763	
0.005951	0.041047	0.354162	0.002594	
-0.005341	0.026703	0.204623	0.005035	
-0.097506	0.005646	0.026093	0.006561	
-0.129244	0.037385	0.138704	-0.003204	
-0.091706	0.078584	0.270847	-0.020599	
-0.052033	0.105440	0.043489	-0.010223	
-0.035859	0.102694	0.276035	-0.017242	
-0.023346	0.068513	0.253452	-0.007477	
-0.010223	0.017853	0.044404	-0.011444	
-0.034944	-0.060578	-0.045625	-0.015106	
-0.116426	-0.096285	-0.052339	-0.011139	
-0.061494	-0.084077	-0.085908	-0.011139	
0.059358	-0.028229	-0.064546	-0.001984	
0.077363	-0.009613	-0.209811	-0.007172	
0.063935	0.002289	-0.315709	-0.001678	
0.086823	-0.009308	-0.205844	0.000763	
0.077973	-0.033113	0.129854	-0.005646	
0.062715	-0.054170	0.019379	-0.008392	
0.036775	-0.067597	-0.097200	-0.007172	
0.016327	-0.051423	0.247044	-0.009308	
0.010223	0.010529	0.180820	-0.000763	
-0.006866	0.049897	0.052949	-0.001678	
0.008392	0.055390	0.049287	0.001678	
0.040742	0.030670	0.010834	-0.002289	
0.042268	0.011139	-0.001373	-0.005951	
0.018768	-0.010834	-0.007782	-0.011749	
0.132906	0.001068	0.005035	-0.005341	
0.162204	-0.013580	-0.013275	-0.009918	
-0.019989	0.003204	-0.028229	-0.009918	
-0.162814	0.042268	-0.020294	-0.009003	
-0.157321	0.068513	-0.018463	-0.010529	
-0.095369	0.062104	-0.015411	-0.006256	
-0.064546	0.021820	-0.017853	-0.013275	
-0.031892	0.013885	-0.009308	-0.001984	
-0.031281	-0.037690	-0.012970	-0.005341	
-0.034028	-0.041047	0.019989	-0.006256	
-0.038301	-0.026398	0.039216	-0.011444	
-0.030975	-0.059663	-0.009613	-0.002899	
-0.027924	-0.094149	0.119783	0.004120	
-0.015411	-0.065156	-0.024261	0.002289	
0.001984	-0.034333	-0.163424	-0.005646	
0.010834	-0.009918	-0.063020	-0.000763	
0.009613	0.005646	-0.239719	-0.001984	
0.021820	0.039826	-0.225986	-0.004120	
0.040742	0.046235	0.142672	0.000763	
0.110628	0.088655	0.061494	0.004425	
0.134737	0.148470	-0.196994	0.005035	
0.000458	0.220188	-0.263523	0.008698	
-0.203403	0.213168	0.151522	-0.005646	
-0.161899	0.096590	0.400854	-0.012360	
-0.052949	-0.096285	0.095980	-0.003510	
-0.056306	-0.199130	0.230259	-0.003510	
-0.011749	-0.145113	0.086213	-0.004120	
0.025787	-0.114595	0.269627	-0.016632	
0.030060	-0.104830	0.411536	-0.009918	
0.039216	-0.106356	0.211947	-0.021515	
0.158237	-0.035249	0.127718	-0.010223	
0.180820	0.033418	0.250706	0.003815	
0.066377	0.047151	0.162814	0.005035	
0.013275	0.045014	-0.515297	-0.010529	
0.012054	0.054780	-0.666362	-0.009918	
-0.002289	0.037385	-0.129244	-0.011444	
-0.005951	-0.001068	0.205234	-0.005951	
-0.043183	-0.040132	-0.073091	0.004120	
-0.031281	0.012970	-0.009613	-0.007477	
-0.023956	0.115511	0.119478	-0.009003	
-0.039216	0.169528	-0.143892	-0.011444	
-0.029755	0.175937	0.095980	-0.005646	
-0.038301	0.007782	-0.036775	-0.009308	
-0.003204	-0.184787	0.049287	0.007782	
0.025787	-0.189975	-0.051423	-0.008392	
0.013275	-0.074616	0.045625	-0.007172	
0.019989	-0.020905	0.117647	0.000153	
0.041047	-0.021210	0.121309	-0.000153	
0.026093	-0.086518	-0.251926	-0.006256	
-0.058442	-0.121004	-0.376745	0.001068	
-0.105745	-0.121614	0.108187	-0.003204	
-0.086213	-0.107882	0.058747	0.001678	
-0.029755	-0.027313	-0.451819	-0.006866	
0.074006	0.094759	0.065766	-0.005646	
0.164645	0.223240	0.318151	-0.005646	
0.092622	0.319371	-0.010223	-0.005951	
0.010834	0.295262	-0.014496	-0.004120	
-0.059663	0.133821	0.066682	-0.011749	
-0.111849	-0.038606	0.124056	-0.007172	
-0.112459	-0.142672	0.145723	-0.008087	
-0.074616	-0.095369	-0.103304	-0.006256	
-0.063630	0.008392	-0.125277	-0.012360	
-0.058137	0.027313	-0.116732	-0.012054	
0.014801	-0.006866	0.113985	-0.016327	
0.167087	-0.009918	-0.081025	-0.006866	
0.062715	-0.016327	-0.209506	-0.011444	
-0.072480	-0.017548	0.113375	-0.001984	
-0.171664	0.005951	0.197299	0.000458	
-0.151217	-0.029449	0.316319	-0.009308	
-0.141451	-0.095675	0.000153	0.001068	
-0.125582	-0.127413	0.247654	0.012360	
-0.064546	-0.062409	0.348974	-0.002289	
-0.020905	0.034944	-0.282750	-0.015106	
0.020905	0.028229	-0.147554	-0.018463	
0.043183	-0.022125	0.064851	-0.022125	
0.049897	-0.033113	0.155489	-0.009308	
0.051728	-0.001373	0.037690	-0.019073	
0.069428	0.056611	-0.034638	-0.005646	
0.078889	-0.003510	0.001068	-0.012054	
0.095369	-0.085908	-0.021820	-0.002899	
0.086823	-0.080110	-0.005341	-0.009308	
0.084382	0.010529	-0.054780	-0.012054	
0.060578	0.098726	-0.145418	-0.013580	
0.054780	0.137484	-0.019684	-0.005035	
0.041352	0.086518	0.100252	-0.004120	
0.002899	0.051118	0.048676	0.008698	
-0.023956	0.038911	-0.031587	0.006561	
-0.011139	0.030365	-0.105135	-0.004425	
0.016632	0.021820	-0.187228	-0.010529	
0.026093	0.021820	-0.032502	-0.007172	
0.002899	0.043183	0.045320	-0.005646	
-0.001678	0.041963	0.038911	-0.017242	
0.001068	0.034638	0.033418	-0.006256	
-0.032197	0.033113	0.030975	-0.007782	
-0.023956	0.001068	0.012665	-0.006866	
0.040132	0.014191	-0.115511	-0.011444	
0.112154	0.092622	-0.323644	0.002594	
0.009918	0.114595	-0.056916	-0.007782	
-0.193637	0.033113	0.196689	0.010834	
-0.184176	-0.087434	0.123751	0.004120	
-0.025482	-0.130770	0.117037	-0.001373	
0.033723	-0.127413	0.020599	-0.006866	
0.055085	-0.119478	-0.204928	-0.005035	
-0.002289	-0.094759	-0.324864	-0.004425	
0.014801	-0.051118	-0.169223	-0.009918	
0.017853	-0.020905	0.181125	-0.006256	
0.031281	0.025177	0.536050	-0.000763	
0.052949	0.019073	0.499123	-0.006866	
0.024872	-0.049897	0.233311	-0.003510	
-0.028229	-0.095369	0.013275	-0.003510	
-0.052339	-0.088655	0.030060	-0.007782	
-0.060578	0.001068	-0.027618	0.003204	
-0.073701	0.071259	-0.086823	-0.009613	
-0.078584	0.082246	-0.039826	-0.000763	
-0.064546	0.053254	-0.128328	-0.004425	
-0.051423	0.070649	0.037080	-0.007172	
-0.047456	0.087129	0.202487	-0.003510	
-0.018158	0.085603	0.060273	-0.005646	
-0.011444	0.054170	0.051423	-0.011444	
-0.001068	0.058442	0.002899	-0.006866	
0.021820	0.031281	-0.009308	-0.014191	
0.037080	0.002289	-0.119478	-0.004425	
0.031281	-0.004120	-0.212558	-0.007172	
0.022736	-0.022125	-0.124971	-0.008392	
0.018463	-0.050202	-0.083772	-0.005646	
0.005035	-0.086823	-0.154879	-0.017242	
0.002899	-0.075227	-0.048371	-0.013580	
-0.005951	-0.056306	0.040132	-0.007172	
-0.003815	-0.028534	-0.003510	0.002594	
-0.001373	0.004425	-0.118868	-0.007172	
0.015717	0.039216	-0.116121	-0.003204	
-0.006256	0.049287	0.201266	-0.008392	
-0.065461	0.066987	0.330358	0.006561	
-0.114595	0.052644	-0.092927	-0.006866	
-0.062409	0.044099	-0.069123	-0.002289	
0.020599	0.037385	-0.153353	-0.009918	
0.112764	0.016327	-0.057527	-0.017853	
0.138704	-0.035554	0.177768	-0.010529	
0.055085	-0.045930	0.077363	-0.013580	
-0.037995	0.004120	0.081941	-0.011139	
-0.055696	0.022430	0.090180	-0.008392	
-0.056916	0.003815	-0.195468	0.000458	
-0.068513	-0.020905	-0.648661	-0.001373	
-0.062104	-0.051728	-0.374914	-0.003510	
-0.047151	-0.074006	0.214084	0.005035	
-0.013580	-0.059052	0.301976	0.004120	
0.016327	-0.048371	0.468910	-0.010223	
0.037080	-0.029144	0.580911	0.002289	
0.017853	-0.023956	0.477760	-0.007172	
0.051728	0.021820	-0.000153	-0.002899	
0.184176	0.029755	0.050202	-0.002289	
0.181125	0.026703	0.003204	-0.009308	
0.026398	0.032502	0.034944	-0.004425	
-0.116426	0.044099	0.034333	0.000153	
-0.134737	0.064851	-0.155184	-0.005035	
-0.116426	0.056306	-0.096590	-0.005646	
-0.095675	0.009308	-0.092317	-0.009308	
-0.073091	0.002289	-0.090486	-0.005341	
-0.068513	0.034638	-0.044404	-0.007172	
-0.108492	0.052949	0.041352	-0.013885	
-0.090180	0.071565	0.070039	-0.000763	
-0.023041	0.028839	-0.001678	0.008392	
-0.014801	-0.005951	-0.027313	0.019989	
-0.007477	-0.066072	-0.310521	0.008698	
0.019684	-0.082856	-0.695048	0.002289	
0.029144	-0.053864	-0.428931	-0.019684	
0.044404	0.012054	0.311742	-0.008392	
0.058442	0.047151	0.386816	-0.003510	
0.066377	0.064240	-0.051728	-0.007782	
0.057832	0.027008	0.216830	-0.017242	
0.026398	-0.052644	-0.031892	-0.011444	
0.003204	-0.106661	0.053559	-0.010223	
-0.003815	-0.100557	0.099642	-0.017853	
0.015717	-0.035249	-0.146944	-0.009003	
0.030975	0.014801	-0.045930	-0.007782	
0.025177	0.039826	0.170444	-0.007172	
0.006866	0.036469	0.076753	-0.002899	
0.010223	0.009918	-0.044404	-0.003510	
0.000458	0.010834	0.066377	-0.008087	
-0.014801	0.026398	0.037080	-0.010223	
-0.024872	0.014801	-0.475014	-0.010223	
-0.028839	0.003815	-0.343480	-0.003510	
0.000153	-0.045014	0.267490	-0.015106	
0.026703	-0.032197	0.839704	-0.001678	
0.012360	0.008698	0.388037	-0.001373	
0.024872	0.040437	0.151522	-0.002289	
0.025177	0.036164	0.124361	-0.009003	
0.031281	0.034028	0.011139	-0.009308	
0.037995	0.028229	-0.031587	-0.009308	
0.039826	0.021820	-0.035554	-0.005646	
0.048371	0.020599	0.001678	-0.005035	
0.097506	0.042268	-0.079194	-0.005646	
0.015717	0.071259	-0.092317	-0.001678	
-0.048066	0.062104	-0.066987	-0.010529	
-0.057221	0.052949	-0.058137	-0.008087	
-0.054170	0.011749	-0.088044	-0.012054	
-0.029755	-0.006256	-0.063020	-0.003510	
-0.022430	-0.019989	-0.054780	-0.010529	
0.005035	-0.044099	-0.045625	-0.008087	
0.072480	-0.054170	-0.045625	-0.006866	
-0.016022	-0.030365	-0.043794	-0.007782	
-0.132601	-0.012054	-0.032502	-0.009003	
-0.113070	0.005035	-0.024261	-0.003510	
-0.082246	0.023956	-0.025177	-0.008392	
-0.059358	0.018768	-0.019073	-0.009003	
-0.086213	0.019989	0.011749	-0.004425	
-0.065156	0.036164	0.030060	-0.006256	
0.046540	0.122530	0.034333	-0.000763	
0.083161	0.189364	0.033418	-0.005035	
0.052033	0.138399	0.038911	-0.005035	
0.023651	-0.059663	0.032502	-0.008392	
0.031281	-0.172275	-0.040437	-0.005646	
-0.111849	-0.135042	-0.109102	-0.008392	
-0.042268	-0.064240	-0.075532	0.010223	
0.109102	-0.029449	-0.036469	0.002899	
0.091096	-0.059663	-0.118868	0.000153	
0.023651	-0.142061	0.144808	-0.009003	
0.040437	-0.143892	0.024261	-0.009613	
0.078889	-0.099337	0.114901	-0.010529	
0.114290	-0.060578	0.198215	-0.004120	
0.132906	-0.019684	0.065766	-0.005646	
0.066377	0.028229	-0.086213	-0.005035	
-0.044404	0.061189	-0.337682	-0.003204	
-0.042878	0.064851	-0.357519	-0.012360	
0.016327	0.047456	0.084992	-0.008392	
-0.033418	0.050813	0.283666	-0.004425	
-0.060578	0.036775	0.032807	-0.011139	
-0.041047	0.005035	-0.153963	-0.015106	
0.132601	0.024567	0.040132	0.004425	
0.133516	0.068513	0.193027	0.009918	
0.032197	0.106661	0.333409	0.004120	
-0.071870	0.118258	0.632486	-0.003510	
-0.251621	0.109713	0.550393	0.002899	
-0.258335	0.037385	-0.112459	-0.001984	
-0.244297	-0.001068	-0.461890	-0.002289	
-0.167392	-0.012054	-0.166476	-0.008392	
-0.075837	-0.084687	0.102388	-0.014191	
-0.039826	-0.082856	-0.116732	-0.022430	
-0.027008	-0.035859	-0.000153	-0.008087	
-0.039826	-0.035859	0.021210	-0.005035	
-0.033113	-0.067292	0.039521	-0.004425	
-0.002899	-0.077668	-0.082856	-0.002899	
0.003204	-0.072480	-0.235447	-0.019684	
0.026703	-0.054475	-0.231785	-0.010223	
0.046540	-0.044099	-0.064240	-0.005951	
0.081330	-0.039216	0.128633	0.007782	
0.081941	0.001678	0.183871	-0.008392	
0.074006	0.056611	0.015411	-0.010223	
0.056611	0.054475	-0.312657	-0.007477	
0.064851	0.062104	-0.231174	0.004425	
0.064240	0.055085	0.121309	-0.006256	
0.058442	0.065461	0.354773	-0.003510	
0.044099	0.050508	0.036775	-0.010529	
0.042268	0.046235	0.030975	-0.009918	
0.012970	0.053254	-0.023346	-0.008087	
-0.074616	0.065156	0.084077	-0.009308	
-0.056001	0.068208	0.172580	-0.008392	
-0.012970	0.032197	0.065461	-0.013275	
0.010834	0.006561	-0.031892	-0.004425	
-0.004120	0.007782	0.139620	-0.005951	
-0.002899	0.049287	0.190585	-0.005341	
0.015106	0.036775	0.025177	-0.001984	
-0.013885	-0.008087	-0.199435	0.000458	
-0.032197	-0.045930	-0.308080	-0.008392	
-0.000763	-0.056001	-0.296788	-0.004425	
-0.011749	-0.051728	-0.263523	-0.007782	
0.000458	-0.052644	-0.108492	-0.000763	
0.010529	-0.083467	0.291905	-0.009308	
0.032807	-0.124971	0.329442	-0.011139	
0.040437	-0.143587	0.220493	-0.012054	
0.033723	-0.110628	0.059358	-0.011139	
0.013885	-0.013885	-0.156405	-0.014191	
0.017242	0.088655	-0.423743	-0.015106	
0.006561	0.122530	-0.498817	-0.008087	
0.048982	0.106661	-0.027008	0.020599	
0.094759	0.069428	0.697490	0.010834	
0.028229	0.068208	0.162509	-0.005035	
-0.127108	0.100863	0.128023	-0.004425	
-0.174411	0.142672	0.167087	-0.009613	
-0.196078	0.094454	0.155489	0.001678	
-0.193637	-0.050202	0.014191	-0.008087	
-0.114290	-0.115511	-0.065766	-0.005341	
-0.086518	-0.084382	0.067903	-0.009003	
-0.033113	-0.007172	0.099947	-0.003204	
0.069428	0.041963	0.075227	-0.003510	
0.060273	0.095064	-0.067903	0.003815	
-0.038301	0.108797	-0.144808	-0.009003	
-0.067903	0.041352	-0.068513	-0.007477	
-0.092317	-0.148470	-0.067597	-0.005341	
-0.187839	-0.221104	-0.137484	-0.018463	
-0.203403	-0.167697	0.047761	-0.009613	
0.066682	-0.050202	0.142366	-0.008087	
0.192111	0.023346	-0.244907	-0.005951	
0.182651	-0.016022	-0.185702	-0.004120	
0.168307	-0.048676	0.088655	-0.010223	
0.159152	-0.015106	0.276646	-0.002899	
0.138704	0.065156	0.099031	-0.005341	
0.158542	0.110933	-0.190890	-0.010223	
0.267796	0.130465	-0.410316	-0.005646	
0.269627	0.145113	-0.438087	-0.016327	
0.028229	0.141451	-0.072175	-0.012054	
-0.176547	0.050813	0.619364	-0.014496	
-0.208285	-0.081635	0.859541	-0.001373	
-0.184176	-0.150301	0.227207	-0.007477	
-0.152437	-0.075837	-0.111238	-0.005951	
-0.121309	0.037995	-0.335851	0.013885	
-0.057527	0.084077	0.002594	0.006561	
-0.037385	0.050202	0.126192	-0.011139	
-0.028839	-0.025482	-0.472267	-0.011749	
0.013275	-0.075837	-0.610209	0.000763	
0.028534	-0.082856	-0.518959	0.007172	
0.012665	-0.063630	0.216220	-0.005035	
-0.000153	-0.042268	0.702678	-0.011139	
-0.003204	-0.009308	0.457007	-0.008392	
-0.003204	0.022736	0.704204	-0.017853	
0.009918	0.047151	0.067903	-0.006256	
-0.029449	0.056001	-0.088960	-0.014496	
-0.063325	0.102388	-0.186313	-0.009918	
-0.047761	0.135653	-0.251926	0.010834	
-0.003204	0.146029	-0.501259	0.009308	
0.016022	0.086213	-0.549783	-0.007782	
0.026093	-0.027313	0.184482	-0.005951	
0.031281	-0.092622	0.511635	-0.004425	
0.044099	-0.098726	0.252842	-0.008392	
0.059358	-0.055696	0.263523	-0.013275	
0.034333	-0.052339	0.214694	-0.009613	
0.000153	-0.053254	0.074616	-0.003204	
-0.049897	-0.056001	-0.010834	-0.008087	
-0.055696	-0.041352	0.051423	-0.001984	
-0.056306	-0.045930	0.000153	-0.004120	
-0.056306	-0.057527	0.015411	-0.003510	
-0.036164	-0.051118	0.006256	-0.012970	
0.013275	0.009003	-0.008087	-0.001678	
0.016022	0.057221	-0.057832	-0.009918	
0.020599	0.066072	-0.066682	0.000153	
-0.002899	0.058137	-0.013580	0.005035	
-0.061494	0.037080	-0.030365	0.009308	
0.024872	0.006561	-0.184787	-0.001984	
0.117037	-0.044404	-0.001373	-0.009003	
0.052644	-0.074006	-0.106050	-0.008087	
-0.005951	-0.044404	-0.112154	-0.012054	
-0.051423	-0.023041	-0.101168	-0.008087	
-0.096590	-0.003510	-0.086213	-0.005035	
-0.019684	0.024872	-0.017853	-0.004425	
0.009613	0.046845	-0.011444	-0.008392	
-0.015106	0.091401	-0.046540	-0.006866	
0.030060	0.114290	0.124056	-0.013580	
0.041963	0.073091	0.183871	-0.001984	
0.041047	-0.000763	0.036164	-0.006256	
0.024261	-0.007172	0.016022	-0.001373	
0.005035	-0.014801	-0.246128	-0.005341	
-0.016327	-0.009918	-0.039521	-0.002899	
-0.061494	-0.035859	0.154879	-0.006256	
-0.079804	-0.023956	0.105745	-0.009308	
-0.084077	-0.032197	0.135347	-0.013275	
-0.050508	-0.023041	-0.031281	-0.012360	
-0.041657	0.012054	-0.323644	-0.011444	
-0.018463	0.042878	-0.395056	-0.003510	
0.000763	0.058137	0.075837	-0.006256	
0.022736	0.032197	0.265965	-0.016327	
0.045930	0.016327	-0.143892	-0.008392	
0.049287	0.004425	-0.016022	-0.009613	
0.082551	0.026398	0.212863	-0.002899	
0.090791	0.045320	0.182651	-0.009918	
0.057221	0.047456	0.376745	0.000763	
-0.016327	0.053254	0.180209	-0.005951	
-0.046540	0.071259	0.107882	-0.009308	
-0.055390	0.072480	0.013275	-0.011139	
-0.025482	0.055390	-0.046845	0.000458	
-0.001678	-0.011444	-0.076142	-0.001984	
0.009918	-0.095369	-0.100863	-0.002899	
0.022736	-0.112459	-0.036164	-0.001678	
0.023041	-0.063325	0.000763	-0.000153	
0.008392	0.003815	0.141146	-0.005646	
-0.074616	0.027313	0.173800	-0.012054	
-0.156405	0.022736	-0.021210	-0.012054	
-0.109713	0.038911	-0.363623	-0.008087	
0.019989	0.025787	-0.483864	0.008392	
0.262608	-0.106966	-0.170138	0.005035	
0.268406	-0.164950	0.008392	-0.000153	
0.078889	-0.060578	0.248569	-0.004425	
-0.103609	0.129854	0.275730	-0.003510	
-0.166476	0.225376	0.093537	-0.013580	
-0.144503	0.160068	0.249180	-0.014191	
-0.079499	-0.088349	0.099642	-0.009003	
0.001984	-0.232700	0.063020	-0.007172	
0.013275	-0.212253	-0.007477	-0.016022	
-0.019379	-0.123446	-0.024567	-0.003204	
-0.058442	-0.052339	-0.037385	0.000153	
-0.057832	-0.037080	0.020599	-0.000763	
-0.045930	-0.021210	0.082551	-0.005951	
-0.039826	0.002289	0.018768	-0.011444	
-0.021210	0.027313	0.118258	-0.005035	
-0.050202	0.033418	0.189670	-0.003510	
-0.161593	0.034638	-0.170749	-0.000763	
-0.049592	0.055390	-0.287938	-0.008087	
0.103304	0.062715	-0.083161	-0.009308	
0.164950	0.060884	0.021210	-0.005035	
0.100557	0.045320	-0.045930	-0.006256	
0.014801	-0.003204	-0.057832	-0.010223	
-0.010223	-0.021515	-0.066072	-0.005646	
-0.019989	-0.006256	-0.035554	-0.004425	
-0.068513	0.004120	-0.011444	-0.004425	
-0.060273	0.012054	0.020294	-0.006256	
0.073091	0.048982	0.132296	-0.002899	
0.080415	0.071565	0.097506	-0.007782	
0.052949	0.077363	-0.180820	0.000153	
-0.010223	0.055390	-0.188754	-0.003510	
-0.027924	0.004425	0.190890	-0.007477	
-0.012360	-0.037385	-0.223240	-0.003204	
0.022125	-0.046540	-0.645609	-0.019073	
0.071259	-0.019684	-0.781415	-0.014191	
-0.009003	-0.011444	-0.101168	0.000458	
-0.051423	0.005646	1.148546	0.012360	
-0.016937	0.045320	0.876326	0.011444	
-0.009308	0.034944	0.277256	-0.001984	
-0.030365	-0.014191	0.261997	-0.020294	
-0.032197	-0.062409	0.153658	-0.010223	
-0.026093	-0.112154	-0.008087	-0.013275	
-0.025787	-0.093232	-0.024567	-0.012360	
-0.017548	-0.019684	-0.056001	-0.012970	
0.003815	0.039216	-0.116121	-0.012054	
-0.020294	0.059358	-0.114901	-0.004120	
-0.033418	0.086213	-0.000153	-0.005951	
-0.029755	0.084382	0.052339	-0.010529	
-0.017548	0.031281	-0.080415	-0.008087	
0.012665	-0.029449	-0.196994	-0.006256	
0.024261	-0.034333	-0.290380	-0.007477	
0.037080	0.020599	-0.247959	-0.005035	
0.021210	0.041963	-0.119173	-0.008392	
0.014191	0.069123	0.309911	-0.000763	
0.009003	0.044099	0.259861	-0.013580	
0.021820	0.001984	0.213168	-0.009918	
0.013275	-0.054475	0.210116	-0.010529	
-0.004425	-0.061494	0.391394	-0.005341	
-0.035554	-0.009613	0.133821	0.008087	
-0.048982	0.030365	-0.638590	-0.000153	
-0.021820	0.036164	-0.475929	-0.005035	
-0.005035	0.056306	0.125582	0.002289	
0.023651	0.066682	-0.150911	-0.001373	
0.049287	0.060273	-0.138399	-0.009918	
0.081941	0.037995	0.256809	-0.013275	
0.034944	0.005035	0.144197	-0.005035	
0.008698	0.003204	0.121309	-0.001984	
-0.011749	0.012360	0.110323	-0.013275	
-0.037080	0.028229	-0.181735	-0.004425	
-0.063630	-0.007172	-0.298924	0.006256	
-0.058442	-0.074006	-0.004425	0.011139	
-0.001984	-0.042268	0.104830	0.006256	
0.073091	0.033113	-0.013275	-0.005646	
0.037690	0.080415	-0.046235	-0.020294	
-0.045320	0.070649	-0.112154	-0.015411	
-0.096285	0.011749	0.144808	-0.013580	
-0.052949	-0.077363	0.269321	-0.000153	
-0.041352	-0.171969	0.587930	-0.002899	
-0.059358	-0.158542	0.362097	0.003815	
-0.117647	-0.072785	0.054780	-0.001373	
-0.173190	-0.002289	-0.260471	-0.006866	
0.023651	0.028839	-0.316625	-0.006866	
0.229649	0.102694	-0.157931	-0.004425	
0.093232	0.086823	-0.093843	-0.008087	
-0.061189	0.030670	-0.019073	-0.005341	
-0.070954	-0.028534	-0.065766	-0.001984	
-0.061494	-0.096895	-0.403906	-0.009003	
-0.094149	-0.048676	-0.541848	-0.010529	
-0.057527	0.097200	-0.137789	-0.015106	
0.024261	0.185092	0.611429	0.002899	
0.066072	0.053254	0.391394	0.002289	
0.082551	-0.111849	0.077058	-0.007477	
0.045014	-0.096285	0.102388	-0.007477	
0.012970	-0.017853	0.058747	-0.005341	
0.017242	-0.026093	0.082551	-0.003204	
0.023041	-0.025177	0.053254	-0.009918	
0.022125	0.001984	0.033418	-0.011444	
0.019989	-0.025177	0.019989	-0.015717	
0.018158	-0.072480	0.009918	-0.010529	
0.005646	-0.090486	-0.002289	-0.009003	
-0.000763	-0.065766	-0.005341	-0.006256	
-0.015411	-0.029755	-0.021210	-0.009918	
0.018158	0.007782	-0.026093	-0.003815	
0.046845	0.016327	-0.018463	-0.009613	
0.026703	0.003815	-0.017548	-0.005646	
0.008392	0.009308	-0.025482	-0.013275	
-0.008087	0.021820	-0.013885	-0.010529	
-0.025787	0.029755	0.012665	-0.007172	
-0.019684	0.063325	0.042573	-0.003510	
-0.010834	0.060884	0.014801	-0.005341	
0.045014	0.062715	0.000763	0.010223	
0.066987	0.057527	-0.124361	-0.007477	
0.038606	0.056611	-0.241856	-0.010529	
-0.010223	0.066377	-0.027008	-0.008087	
-0.061799	0.095064	0.087129	-0.001373	
-0.081025	0.075532	0.158237	-0.002289	
-0.060578	0.049897	0.089265	-0.003510	
-0.055390	0.034638	0.133821	-0.004120	
-0.058442	0.002289	0.110323	-0.006256	
-0.065461	0.002594	-0.080110	-0.004425	
-0.071565	0.038301	-0.425879	-0.002899	
-0.019379	0.053254	-0.513161	0.009918	
0.005035	0.014801	-0.003815	0.004425	
0.017853	-0.021820	0.554360	-0.007782	
0.042268	-0.041047	0.211947	-0.018463	
-0.000763	-0.041352	0.004120	-0.003510	
-0.004425	-0.055696	0.100252	-0.012054	
0.012665	-0.028229	0.185092	0.002594	
0.018158	-0.027618	0.180820	0.002289	
0.013275	-0.054475	-0.147554	-0.003510	
0.006561	-0.055696	-0.137178	-0.008392	
0.018158	-0.019379	0.003204	-0.005646	
0.030060	-0.009613	0.076753	-0.011749	
0.028534	-0.005951	0.103914	-0.012360	
0.026398	0.014801	0.202487	-0.007172	
0.043794	0.015106	0.215915	-0.013580	
0.120089	0.030670	0.122225	-0.000763	
0.068818	0.027313	0.026093	-0.004425	
-0.078584	0.018768	-0.192416	0.001678	
-0.187533	-0.011139	-0.389563	-0.009308	
-0.022430	0.005951	-0.263523	-0.005035	
-0.000153	0.024567	-0.322423	-0.002899	
-0.003204	0.042573	0.004730	-0.004425	
-0.027618	0.018158	0.847944	0.008087	
-0.051423	-0.009003	-0.034333	0.013885	
-0.072175	-0.021210	-0.503395	0.000153	
-0.042268	0.018768	-0.268406	-0.007172	
-0.010834	0.017242	0.121004	-0.021210	
0.020905	-0.017853	-0.024567	-0.017548	
0.012665	-0.062104	0.142061	-0.020599	
-0.009613	-0.083467	0.318151	-0.017853	
0.005951	-0.059052	0.135653	-0.010223	
0.091401	-0.014801	0.107882	-0.016022	
0.186313	0.033418	0.055696	-0.011139	
0.071259	0.052033	0.013275	-0.008392	
-0.072480	0.016327	-0.000153	0.000153	
-0.145113	-0.054170	-0.049592	-0.002289	
-0.116732	-0.076753	-0.042573	0.001678	
-0.087434	-0.057832	0.111849	-0.007172	
-0.049287	-0.023041	0.211947	-0.005341	
-0.009613	0.011749	0.010529	-0.001678	
0.030365	0.029144	-0.264133	-0.004120	
0.089265	0.007172	-0.333104	-0.007477	
0.100863	-0.025177	-0.111544	-0.003510	
-0.004425	-0.029755	0.093232	-0.004120	
-0.114290	-0.033113	0.107576	-0.003204	
-0.096285	-0.010834	-0.021210	-0.001068	
-0.045320	0.048676	-0.165866	-0.006256	
-0.013885	0.115816	-0.127108	-0.005035	
-0.016937	0.121614	-0.153658	-0.010529	
-0.017242	0.087129	-0.056306	-0.005646	
-0.029449	0.012970	0.354773	-0.015106	
-0.016022	-0.031892	0.190280	-0.001984	
0.008698	-0.037385	0.085298	-0.004120	
0.030365	-0.005341	-0.096590	-0.004425	
0.031892	0.008087	-0.221714	-0.013275	
0.032197	0.023346	-0.084382	-0.008392	
0.012970	0.038911	0.358130	-0.012054	
0.011139	0.068818	0.314488	-0.005646	
0.002594	0.057527	-0.062104	-0.005035	
0.014191	0.034944	0.009918	-0.005035	
0.019989	-0.003204	-0.050202	-0.011444	
0.032502	-0.010223	0.028534	-0.009918	
0.044404	-0.011139	-0.126802	-0.005646	
0.040742	-0.031587	0.079499	-0.002899	
0.030365	-0.028229	0.061494	0.001678	
0.012054	-0.012360	-0.037690	-0.007782	
-0.028229	0.001678	-0.051728	-0.004425	
-0.097811	-0.001678	-0.108797	-0.009613	
-0.045014	0.024261	0.124056	-0.005646	
0.000153	0.041963	0.163730	-0.005646	
-0.016327	0.063020	-0.005951	0.000458	
-0.053864	0.059052	-0.050508	-0.008392	
0.034333	0.030365	-0.009308	0.000153	
0.082551	-0.012970	0.057527	-0.007172	
0.084687	-0.026398	0.041657	0.000153	
0.067292	-0.007172	0.099947	-0.007477	
0.023651	-0.029449	-0.060578	-0.010223	
-0.042268	-0.079194	-0.114595	-0.003510	
-0.031281	-0.068513	-0.231785	-0.009918	
-0.017548	-0.042268	0.065156	-0.006256	
-0.023346	-0.037080	0.027924	-0.003510	
-0.027924	-0.037995	0.137484	0.001068	
-0.023346	-0.071259	0.167087	-0.009918	
-0.011749	-0.029449	-0.032197	0.000458	
-0.011444	0.044709	-0.105135	0.008698	
-0.015717	0.147249	0.178683	0.000763	
-0.002289	0.214999	-0.060578	-0.018463	
0.009918	0.150606	-0.098726	-0.001984	
0.004730	-0.009918	0.070649	-0.017548	
0.006561	-0.067292	0.071870	-0.015717	
-0.020294	-0.055085	0.080110	-0.016022	
-0.037995	-0.045930	0.033113	-0.006256	
-0.033723	-0.072480	-0.009308	-0.007782	
-0.030365	-0.077973	-0.082246	-0.005646	
-0.021210	-0.043489	-0.024261	-0.009308	
0.004730	0.002594	-0.126192	-0.016632	
0.023956	0.020905	0.062409	-0.001984	
-0.000153	-0.019379	0.197909	-0.002289	
-0.033418	-0.028229	-0.058442	0.000153	
-0.054170	-0.014801	-0.286412	-0.013885	
-0.041352	0.008698	-0.132296	-0.005341	
-0.041352	-0.008392	-0.313573	-0.005646	
-0.025177	-0.027313	-0.186923	-0.004425	
-0.012970	-0.037995	-0.003204	-0.005035	
0.038606	-0.047151	-0.003204	-0.013580	
0.130159	-0.019073	0.175937	-0.011749	
0.138704	-0.011444	0.023956	-0.001984	
0.015717	-0.022125	0.116121	-0.005341	
-0.088655	0.036164	0.150606	-0.001678	
-0.109102	0.129854	0.373999	-0.007782	
-0.090180	0.209506	0.066377	-0.002289	
-0.124666	0.225986	0.141146	-0.000763	
-0.121614	0.064240	0.099337	-0.001984	
-0.066072	-0.110018	0.081635	-0.009003	
-0.012054	-0.125887	0.136263	-0.011139	
0.044099	-0.106356	-0.191195	0.006561	
0.043794	-0.082856	-0.251926	-0.001068	
0.049897	-0.054170	0.091401	-0.005035	
0.051728	-0.029755	0.626688	0.000458	
0.018158	0.006561	-0.083772	-0.000763	
-0.009308	-0.002289	-0.050202	-0.009613	
-0.017548	-0.003204	0.047456	-0.002289	
-0.012360	-0.002899	-0.019684	-0.012970	
0.007172	0.007172	-0.029449	-0.005341	
0.009003	0.016937	-0.017242	-0.007172	
0.016327	0.034028	-0.052949	-0.005951	
0.008698	0.052339	-0.041963	-0.013885	
-0.005035	0.063325	-0.074922	-0.013885	
0.017242	0.058442	-0.103914	-0.009003	
0.114901	0.043183	-0.058442	-0.013580	
0.009918	0.036164	0.138704	-0.006256	
-0.114595	0.031281	0.253147	-0.003204	
-0.065766	0.056916	-0.067903	-0.008392	
-0.074616	0.050813	-0.474098	0.000763	
-0.019684	0.004120	-0.143892	0.018463	
0.018158	-0.057527	-0.333104	0.010223	
0.032807	-0.083772	-0.361486	0.005951	
0.027924	-0.072785	0.168307	-0.013885	
0.046235	-0.021515	0.051728	-0.017853	
0.050202	0.020905	0.313573	-0.012054	
0.056916	0.024872	0.381018	-0.003815	
0.038301	-0.002289	0.383764	-0.004425	
0.010529	-0.006866	-0.072785	-0.004425	
-0.014191	0.007782	-0.163730	-0.007782	
-0.011139	0.027924	-0.231174	-0.005951	
0.007782	0.048066	-0.096590	-0.008087	
0.018158	0.075227	0.181735	-0.010223	
0.004730	0.092927	0.283360	-0.005646	
-0.021210	0.072175	0.211947	-0.015106	
0.022736	0.024261	0.147249	-0.005951	
0.000458	-0.051728	0.042878	-0.004425	
-0.075837	-0.103304	0.027924	-0.001678	
-0.053864	-0.095675	-0.118258	-0.005951	
-0.052033	-0.034028	-0.310521	-0.002899	
-0.133516	-0.037690	-0.243992	-0.006256	
-0.142061	-0.026398	-0.112154	0.005951	
-0.035554	-0.023346	0.078584	-0.007172	
0.020599	-0.017242	-0.100863	-0.007172	
0.050813	-0.016327	-0.113070	-0.007172	
0.076753	-0.013275	-0.094454	-0.000763	
0.066682	-0.014801	0.205234	-0.000153	
0.040742	0.003204	0.320287	-0.005035	
0.032502	0.056306	0.195773	-0.001984	
0.033113	0.104525	0.226902	-0.015106	
0.057221	0.130465	-0.062104	-0.010529	
0.096590	0.094759	-0.159762	-0.007477	
0.082856	0.047151	-0.016022	-0.012054	
0.028534	0.009003	0.039521	-0.011444	
-0.037080	-0.000763	0.150606	-0.001678	
-0.098421	-0.028534	-0.007172	-0.009918	
-0.077668	-0.034944	-0.153963	-0.002289	
-0.089265	-0.021515	-0.238499	-0.012360	
-0.136263	0.019379	-0.024567	-0.009003	
-0.193332	-0.024261	0.144808	-0.005035	
-0.094454	-0.051423	0.048676	-0.009613	
0.060884	-0.096895	0.007782	-0.012054	
0.076753	-0.104830	-0.142366	-0.001373	
0.056916	-0.102083	0.212863	0.002289	
0.030975	-0.075837	0.128023	0.002899	
-0.011444	-0.008087	-0.108187	-0.009308	
-0.012970	0.072175	-0.030060	-0.005951	
-0.001373	0.141451	0.038606	-0.004120	
0.020294	0.171664	-0.011749	-0.008087	
0.038301	0.148775	-0.010223	-0.005035	
0.033723	0.000153	-0.012360	-0.008087	
0.027008	-0.137484	-0.003815	-0.004425	
-0.001068	-0.121614	-0.005341	-0.003510	
-0.013885	-0.009613	0.004730	-0.001984	
-0.019989	0.090486	-0.001373	-0.005035	
0.003204	0.148470	0.001068	-0.006256	
-0.006866	0.118868	-0.006256	-0.017853	
-0.010223	0.063325	0.000763	-0.013275	
-0.007477	-0.039826	0.006561	-0.008392	
0.006256	-0.113680	0.007782	-0.005646	
0.013275	-0.112459	-0.026093	-0.007477	
0.012360	-0.092622	-0.066987	-0.008087	
-0.015411	-0.085908	-0.034638	-0.003510	
-0.040437	-0.072175	0.030670	-0.000763	
-0.026398	-0.049592	0.127413	-0.005951	
0.008698	-0.029449	0.023041	0.000153	
0.009918	0.000153	0.038606	-0.003204	
0.024872	0.049287	0.020294	-0.006866	
0.171664	0.062409	0.016632	-0.001678	
0.202182	0.027924	0.009308	-0.008392	
0.041047	0.037995	0.015411	0.000458	
-0.106661	0.079194	0.011139	-0.007172	
-0.141451	0.091401	0.011139	-0.006256	
-0.126497	0.070954	0.016937	-0.003204	
-0.099642	-0.007172	0.016327	-0.003510	
-0.052949	-0.082856	0.008087	-0.003510	
-0.030975	-0.087434	0.011749	0.000153	
-0.021820	-0.053254	0.014191	-0.004120	
-0.020294	-0.032197	0.014801	-0.004120	
-0.023651	-0.019684	0.030060	-0.003204	
-0.016937	0.009308	0.108187	-0.009918	
-0.012054	0.028229	0.051728	-0.016022	
-0.014191	0.027008	-0.549172	-0.017548	
0.018463	0.041047	-0.791791	0.000763	
0.063325	0.033113	-0.131075	0.014801	
0.051728	0.041352	0.773174	0.030670	
-0.145113	0.028534	0.552529	0.002899	
-0.064240	0.036164	-0.056001	-0.017548	
-0.002289	0.012665	-0.060578	-0.027313	
-0.051423	0.006561	0.077668	-0.015717	
-0.026093	-0.016022	0.280918	-0.013885	
0.042878	-0.031587	0.160678	-0.017853	
0.057221	-0.014801	0.047151	-0.016022	
0.060578	0.011139	0.214999	-0.002289	
0.055390	0.028839	0.355078	-0.006866	
0.036775	0.021210	-0.237583	-0.007782	
0.022125	0.018463	0.004730	-0.012970	
0.062409	0.001068	0.122225	-0.003204	
0.052339	-0.011139	0.040437	0.009308	
-0.001678	0.004120	-0.083772	-0.011749	
-0.036164	0.024872	-0.386206	-0.009918	
-0.068208	0.024872	-0.089875	-0.009003	
-0.079499	0.044404	-0.153353	-0.007477	
-0.046540	0.038911	-0.110628	-0.013885	
-0.004425	0.026093	-0.153048	-0.016632	
-0.001373	0.036164	-0.392004	-0.015411	
-0.000153	0.043183	-0.587930	-0.001068	
-0.005646	0.022736	-0.212253	0.000763	
-0.006866	-0.001068	0.548562	0.002594	
-0.005341	-0.053254	0.153658	-0.010223	
-0.002289	-0.095980	0.156099	-0.022736	
-0.021820	-0.099947	0.538796	-0.012054	
-0.037385	-0.130159	0.354773	0.002594	
-0.027313	-0.144503	0.159457	-0.002899	
-0.013885	-0.103304	-0.104219	-0.002899	
0.002594	-0.077363	-0.020294	-0.003510	
-0.043489	-0.031587	0.250706	-0.001373	
-0.077668	0.028534	0.129549	0.002899	
-0.012970	0.066987	0.192721	-0.011749	
0.023956	0.113680	0.170138	-0.011749	
0.051118	0.128328	-0.062104	-0.018463	
0.070954	0.131380	-0.204928	-0.001373	
0.049897	0.072785	-0.187228	-0.003204	
0.055085	0.032197	-0.133821	-0.009003	
0.048066	0.018768	-0.023346	-0.017548	
0.034944	0.051423	-0.240025	-0.013580	
0.018463	0.064240	0.008392	-0.007172	
0.004120	0.040742	-0.131380	-0.005035	
-0.021210	0.013885	-0.148470	-0.011444	
-0.034028	-0.001984	0.261387	-0.009308	
-0.045014	-0.010223	0.076447	-0.004425	
-0.060578	-0.029755	-0.036775	-0.005035	
-0.005035	-0.038606	-0.188144	-0.006256	
0.024872	-0.043183	-0.306249	-0.015717	
-0.058442	-0.027313	-0.328832	0.001984	
-0.119173	0.037080	-0.133211	0.002594	
-0.037690	0.094759	-0.065766	0.001678	
0.035859	0.103304	0.166476	-0.010223	
0.054475	0.126497	0.417029	0.001984	
0.045014	0.079194	0.247349	-0.005646	
0.051728	-0.049287	0.044404	-0.001373	
0.030670	-0.113680	0.175632	-0.007172	
0.024872	-0.092622	0.098116	-0.005951	
0.001984	-0.082856	0.009003	-0.009918	
-0.031892	-0.078584	-0.145418	-0.007477	
-0.044099	-0.065461	-0.113985	-0.005951	
-0.055696	-0.027313	0.031281	0.002899	
-0.115511	-0.026093	-0.112459	0.006256	
-0.155184	-0.065766	-0.535134	-0.001984	
-0.015717	-0.115511	-0.482033	0.008698	
0.085298	-0.136568	-0.102388	0.014191	
0.064240	-0.081635	0.811322	0.015411	
0.091401	0.000763	0.370031	-0.002899	
0.230869	0.011749	0.225376	-0.010529	
0.180514	0.016632	0.311437	-0.015106	
-0.016937	0.055085	0.217441	-0.014496	
-0.088655	0.063325	0.194247	-0.019073	
-0.160373	0.082856	0.049287	-0.014191	
-0.193332	0.094149	-0.007477	-0.014191	
-0.176852	0.090791	-0.011749	-0.007172	
-0.119173	0.040437	0.157321	-0.012360	
-0.048982	-0.064546	0.350805	-0.013885	
-0.021820	-0.186313	0.077363	-0.010529	
-0.012360	-0.142672	-0.306554	0.001984	
-0.005341	-0.015717	-0.482643	0.003204	
0.014191	0.062409	-0.346838	-0.005951	
0.010529	0.086823	0.014191	-0.002899	
-0.001373	0.055390	-0.071565	-0.016327	
0.016327	0.048982	-0.006866	-0.010223	
0.026398	0.059968	-0.178073	-0.011749	
0.035859	0.084992	-0.170749	0.000763	
0.019073	0.063630	0.204318	-0.009918	
0.040132	0.054475	0.170749	-0.005341	
0.040742	0.038911	-0.072480	-0.009918	
0.054475	0.041047	0.059358	-0.000763	
0.080720	0.030975	-0.015106	-0.001984	
0.079804	-0.006866	0.008087	0.002594	
0.045014	-0.022125	0.099031	-0.003510	
-0.069123	0.008392	-0.047456	-0.004425	
-0.126497	0.020294	-0.145113	0.000763	
0.022125	0.006256	0.049592	0.001678	
0.061189	-0.017242	0.034638	-0.005951	
0.058137	-0.042573	0.010529	-0.012970	
0.031281	-0.062409	0.048982	-0.010223	
-0.009613	-0.044404	-0.007477	-0.011444	
-0.012360	-0.001068	0.063020	-0.003510	
-0.005646	0.000458	0.050202	-0.008392	
-0.000763	0.029144	-0.043183	-0.001678	
-0.016937	0.044709	0.038606	-0.015106	
-0.008087	0.076753	0.024872	-0.003204	
-0.013885	0.093537	0.016937	-0.005341	
-0.009613	0.083161	0.015411	-0.008392	
-0.004120	0.065461	0.013275	-0.006866	
0.004730	0.059052	0.008698	-0.003204	
0.000763	0.054170	0.001678	-0.009003	
-0.009003	0.032197	0.031281	-0.009003	
-0.030365	0.000763	0.006256	-0.012054	
-0.031281	-0.019989	-0.021515	-0.012054	
-0.017242	-0.037995	-0.181125	-0.011444	
-0.017853	-0.044099	-0.430762	-0.006866	
-0.011749	-0.039216	-0.221714	-0.005646	
-0.005035	-0.041047	0.260777	-0.012054	
0.019989	-0.037385	0.206759	0.000153	
-0.015411	-0.031281	0.222935	0.006256	
-0.045625	-0.029144	0.514687	0.015106	
-0.048982	-0.028229	-0.200961	-0.005951	
-0.045320	-0.023346	-0.155489	-0.010223	
-0.044404	-0.033113	-0.064851	-0.005341	
-0.029755	-0.015106	-0.017242	-0.005951	
-0.039216	0.008087	0.209506	-0.017242	
-0.029755	0.033418	0.144808	-0.012054	
-0.064546	0.039826	0.151522	-0.011139	
-0.031587	0.033418	-0.059358	-0.001373	
0.037080	0.018768	-0.137789	0.005035	
0.052339	-0.011444	0.600748	0.006561	
0.044099	-0.030365	-0.214084	-0.001068	
0.012970	-0.054475	-0.515602	-0.011139	
0.020294	-0.069734	-0.299230	-0.012054	
0.026093	-0.057527	0.013885	-0.016022	
-0.029144	0.012665	0.309911	0.002899	
-0.080110	0.068818	0.281223	-0.016632	
0.019989	0.060578	0.206149	-0.007172	
0.078584	-0.066072	0.022125	-0.005646	
0.080415	-0.084077	0.074922	-0.000763	
0.042573	-0.053254	0.040132	-0.009918	
0.031281	-0.032197	-0.045930	-0.011444	
0.027313	-0.023346	-0.112764	-0.009003	
0.009003	-0.037080	-0.221409	-0.013580	
0.010529	-0.047151	-0.181125	-0.004120	
0.007782	-0.029449	0.131990	0.002289	
-0.023651	-0.011139	0.018463	0.002594	
-0.034944	-0.037080	-0.333409	-0.005951	
-0.046540	-0.045320	0.087434	-0.006256	
-0.064240	-0.017242	-0.028534	-0.001373	
-0.063020	0.018768	0.006561	-0.000153	
-0.049897	0.049897	0.142672	-0.015106	
-0.026398	0.046235	0.113985	-0.001984	
0.031281	0.020905	0.273289	-0.003204	
0.065156	0.022736	0.027313	-0.005035	
0.078584	0.043183	0.026398	-0.005951	
0.065156	0.117342	-0.101473	-0.004425	
0.013275	0.148470	-0.185702	-0.018463	
-0.000763	0.147249	0.056306	-0.009308	
0.001984	0.128328	0.123446	-0.004120	
-0.043794	0.078889	0.162509	0.001068	
-0.103914	-0.027008	-0.064240	-0.001984	
-0.113070	-0.071870	0.010834	-0.014496	
-0.093537	-0.048371	0.086213	-0.019989	
-0.050508	-0.020294	-0.081941	-0.005035	
-0.003815	-0.001068	-0.026093	0.004120	
0.004120	-0.009003	0.041352	0.002289	
0.012665	-0.002289	-0.502480	0.002594	
0.016022	0.009308	-0.173495	-0.015717	
0.022125	0.020294	0.118258	-0.007172	
0.027924	0.010529	-0.082551	-0.009918	
0.026398	0.029144	-0.229954	-0.010223	
0.012360	0.024872	-0.070344	-0.012054	
0.024261	0.019989	0.312047	0.010834	
0.009613	0.008698	0.250401	0.003815	
0.009918	0.013885	-0.087739	-0.003510	
0.010223	0.002594	0.055390	-0.012360	
0.004730	-0.004425	0.130465	0.003204	
-0.016937	-0.009918	0.128633	-0.000763	
-0.016937	-0.015717	0.119173	-0.005951	
-0.015411	-0.023956	0.090180	-0.003204	
-0.019379	-0.038301	0.061494	-0.007782	
-0.010223	-0.036469	0.040742	-0.009003	
-0.009003	-0.032197	-0.007782	-0.012970	
0.006866	-0.005646	-0.028534	-0.001068	
0.001984	-0.010834	-0.070039	-0.010223	
0.016937	0.008087	0.065156	-0.001678	
0.098116	0.019989	0.102388	-0.012970	
0.298924	0.021820	-0.052339	-0.005951	
0.257420	0.004120	-0.207065	-0.009308	
-0.070954	0.013275	-0.138704	-0.009308	
-0.262302	0.002594	0.070954	-0.001373	
-0.220798	-0.013580	0.063020	-0.005951	
-0.169223	-0.016327	0.065766	-0.012054	
-0.120699	-0.005035	0.055085	-0.007782	
-0.055390	-0.008392	0.034028	-0.007172	
0.003204	-0.009918	0.016632	-0.005341	
0.009003	-0.050202	-0.027924	-0.007782	
-0.000153	-0.086213	-0.110018	-0.008392	
0.008392	-0.082856	-0.069123	0.001068	
0.000153	-0.041963	-0.110933	-0.001984	
-0.008087	0.009308	-0.161899	-0.011444	
-0.029755	0.030365	-0.136873	-0.016022	
-0.032197	0.042268	0.348364	0.006866	
-0.045625	0.063630	0.232700	0.008087	
-0.049897	0.092317	-0.240330	0.003204	
-0.048982	0.076753	-0.034638	-0.006256	
-0.037080	0.045320	0.131990	0.005035	
-0.065156	0.000458	0.655069	-0.001373	
0.013275	-0.015106	0.198520	-0.012970	
0.091096	0.006256	-0.451209	-0.017853	
0.085298	0.036469	0.002899	-0.005951	
0.028229	0.035249	-0.144503	-0.008392	
-0.006866	0.009003	-0.038301	-0.013275	
-0.019684	-0.012054	0.316319	-0.006256	
-0.016327	-0.008087	0.371252	-0.007782	
0.009003	0.013885	-0.265049	-0.011444	
-0.001678	0.016937	-0.122225	-0.010223	
-0.095064	0.024872	0.053559	-0.008392	
-0.056001	0.069123	0.058747	-0.009613	
0.084687	0.139315	0.018158	-0.013885	
0.081941	0.168002	0.014191	-0.019073	
0.056611	0.145418	-0.067597	-0.004425	
0.040437	-0.042573	-0.058137	-0.005646	
0.060884	-0.172275	-0.059968	-0.001373	
0.047151	-0.147860	-0.040437	-0.009308	
0.044404	-0.102083	0.020294	-0.010223	
0.037080	-0.105745	0.030365	-0.006256	
0.019684	-0.116426	0.024261	-0.001068	
-0.019684	-0.110933	0.033418	-0.001678	
-0.043794	-0.103304	-0.039216	0.000763	
-0.040437	-0.110628	-0.139620	0.004120	
-0.006256	-0.100252	-0.056916	-0.002289	
0.036469	-0.039521	0.027008	-0.006256	
0.027924	0.001984	-0.150606	-0.015411	
-0.075532	0.032502	-0.362707	-0.009003	
-0.108492	0.016937	-0.313573	-0.007477	
0.058747	0.020905	-0.151827	0.013275	
0.054170	0.041963	-0.124361	0.012665	
-0.005646	0.105745	0.119783	-0.006256	
-0.005951	0.146029	0.392309	-0.017242	
0.018463	0.135347	0.475014	-0.006256	
0.086518	0.078584	0.120089	-0.005035	
0.129549	0.003815	0.006866	-0.002899	
0.072785	-0.088655	0.134432	-0.007782	
0.000763	-0.106966	0.129549	0.002899	
-0.057221	-0.032197	0.139925	-0.014191	
-0.061494	0.037995	-0.018463	-0.017548	
-0.080110	0.074006	-0.193637	-0.012970	
-0.079499	0.105745	-0.074922	0.002289	
-0.043183	0.111238	0.214999	0.009003	
-0.024261	0.088349	0.289159	-0.001984	
-0.066377	0.049897	-0.045625	-0.013275	
-0.140535	-0.009613	0.067292	-0.018158	
-0.034944	-0.009918	-0.113070	-0.008087	
0.109102	0.041047	-0.058747	-0.011139	
0.089875	0.093537	0.301976	-0.006256	
-0.035859	0.076447	0.147249	-0.005035	
-0.092011	0.020294	-0.128633	-0.001984	
-0.081025	-0.041047	-0.143892	-0.009308	
-0.088655	-0.049897	-0.028534	-0.015717	
-0.060273	-0.029144	-0.056001	-0.013275	
0.006561	-0.032197	-0.000153	0.001678	
0.032197	-0.057221	-0.222630	0.011139	
0.025177	-0.059052	-0.248875	0.015106	
0.009003	-0.071565	-0.011139	0.004425	
-0.016937	-0.074006	0.008698	-0.001678	
-0.015411	-0.054170	0.138094	0.001068	
0.054780	-0.029449	0.104830	-0.005035	
0.198215	0.023041	0.058747	-0.004425	
0.251621	0.059052	-0.066987	-0.016022	
0.058747	0.139925	-0.348059	-0.006866	
-0.089875	0.202792	-0.099031	-0.005951	
-0.033418	0.187228	0.192416	-0.000153	
-0.066987	0.080720	-0.255589	-0.017242	
-0.197909	-0.040132	-0.147249	-0.017242	
-0.196383	-0.188449	-0.147249	-0.005951	
-0.124056	-0.230869	0.357824	0.011444	
-0.077363	-0.186923	0.620890	0.001678	
-0.059052	-0.115816	0.176547	-0.010223	
-0.049897	-0.088044	0.170749	0.002594	
-0.045930	-0.098421	0.262913	-0.005035	
-0.059358	-0.051423	0.067903	-0.013275	
-0.063935	-0.023651	0.085603	-0.006256	
-0.037385	-0.017853	-0.039826	-0.002289	
0.025787	-0.006256	-0.184787	-0.007782	
0.086823	0.026703	-0.289464	-0.013885	
0.103304	0.088960	-0.130159	-0.010529	
0.112764	0.108492	0.123751	-0.005035	
0.108492	0.095064	-0.005341	-0.009003	
0.098116	0.084077	-0.199130	-0.006866	
0.065156	0.083467	0.239719	-0.010223	
0.058747	0.082856	0.322118	0.005035	
0.005646	0.048371	-0.207980	-0.007477	
-0.065156	0.046235	-0.228123	-0.010529	
-0.024872	0.050813	-0.244297	-0.019989	
0.014191	0.066072	-0.428016	-0.008392	
0.012970	0.046235	-0.463111	-0.004120	
0.094149	0.009308	0.323949	0.005035	
0.057221	0.021210	0.615396	0.011139	
-0.005646	0.089265	0.124056	-0.009003	
-0.029449	0.159762	-0.052033	-0.021820	
-0.086213	0.179904	-0.106966	-0.014191	
-0.001068	0.090180	0.133821	-0.000763	
0.050202	-0.089875	0.004730	-0.007782	
0.036775	-0.227207	-0.294347	-0.005951	
-0.005341	-0.321813	0.001678	-0.000153	
-0.035249	-0.304723	0.536660	0.004730	
-0.072175	-0.193942	0.381323	-0.011139	
-0.089570	-0.073701	-0.121309	0.000153	
-0.075837	-0.034333	0.192416	-0.004120	
-0.019684	-0.003510	0.088044	-0.005341	
0.006866	0.008087	-0.046235	-0.014496	
0.015717	0.034028	0.032807	-0.003204	
0.016022	0.022736	-0.070954	-0.009918	
0.017853	0.037385	-0.019073	-0.008087	
0.011749	0.054170	0.073091	-0.007782	
0.014801	0.068513	0.011139	-0.012054	
0.033113	0.112459	-0.025482	-0.003204	
0.013275	0.107271	-0.094454	-0.010529	
-0.002289	0.089265	-0.101473	-0.003204	
0.003815	0.080720	-0.108492	-0.009308	
0.006256	0.087129	-0.090486	-0.009003	
-0.024872	0.070039	0.038606	-0.012054	
-0.016327	0.054780	0.120089	-0.005341	
0.007782	0.012360	-0.026093	-0.003204	
0.016022	-0.018463	-0.102999	-0.000763	
-0.006256	-0.030060	0.166171	-0.002289	
-0.000763	-0.043183	0.088655	0.012970	
0.007782	-0.076142	-0.416724	0.008392	
0.013275	-0.058137	-0.431373	-0.007477	
0.009003	-0.009613	-0.261997	-0.010223	
-0.009613	0.023956	-0.183871	-0.000763	
-0.049287	0.026703	0.024261	0.007172	
-0.077973	0.009003	0.159457	-0.007477	
-0.060578	-0.012360	-0.099031	-0.015411	
-0.051423	-0.019379	-0.059663	-0.008392	
-0.033723	-0.014801	0.203097	-0.012054	
-0.001068	-0.015411	0.422828	-0.012970	
0.001678	-0.017242	0.141451	-0.000153	
-0.003204	0.000763	0.350805	-0.011139	
0.002594	0.017242	0.200656	-0.008392	
-0.012360	0.009003	0.080720	-0.012360	
-0.003815	0.003815	0.055390	-0.005646	
0.007782	-0.000763	0.030975	-0.011444	
0.020599	0.008087	0.051423	-0.005646	
0.028534	0.003815	-0.131685	-0.008392	
0.037995	0.006866	-0.118868	-0.009003	
0.033723	0.005951	0.022736	0.001678	
0.021210	-0.000153	-0.317540	0.009003	
0.012665	0.014191	-0.304723	0.006561	
-0.002899	0.016327	0.131990	-0.009003	
-0.004425	0.029144	0.222935	-0.004425	
-0.025177	0.046845	0.358130	-0.013275	
-0.042878	0.055085	0.187228	-0.002289	
-0.034028	0.049897	-0.033723	-0.003510	
-0.019073	0.022125	-0.009003	-0.011139	
-0.024872	-0.056001	0.047761	-0.015106	
-0.020905	-0.100252	0.165561	-0.004425	
-0.079499	-0.095980	0.123751	-0.004425	
-0.075837	-0.034333	0.124971	-0.004120	
-0.006866	0.014801	0.028534	-0.015717	
0.023651	0.022430	-0.265965	-0.000763	
0.037690	-0.017242	-0.602579	0.005035	
0.037080	-0.033113	-0.669108	0.004425	
0.020599	-0.039826	-0.339208	-0.011749	
0.020294	-0.037385	-0.127718	-0.002899	
0.013275	-0.035859	0.381933	-0.000153	
-0.025787	-0.009613	0.503700	-0.005646	
-0.019989	0.030670	0.152132	-0.010529	
-0.003510	0.059358	0.373999	-0.019379	
-0.007782	0.093232	0.173800	-0.011139	
-0.066987	0.078889	0.065461	-0.010223	
-0.057832	0.059358	0.032807	-0.010529	
-0.001678	0.026703	-0.016937	-0.012970	
0.025177	0.014801	0.017853	-0.001373	
0.032807	0.020294	-0.006256	-0.006256	
0.024261	0.039216	-0.026093	-0.004120	
0.020294	0.049287	0.013275	-0.004120	
0.048066	0.036775	-0.008087	-0.001678	
0.082856	-0.003815	0.012665	-0.002899	
0.070954	-0.039826	0.051423	-0.005035	
0.034028	-0.064546	0.067597	-0.010529	
-0.029449	-0.061189	-0.056611	-0.011139	
-0.055696	-0.043794	-0.282140	-0.010529	
0.027313	-0.024872	-0.071565	-0.000763	
0.199740	-0.001373	0.099031	0.001984	
0.143282	0.000458	-0.084382	-0.002289	
-0.039216	0.016937	-0.122225	0.001068	
-0.119478	0.036164	-0.116732	-0.014191	
-0.135958	0.054475	0.034944	-0.010529	
-0.057832	0.059052	0.001984	-0.011444	
0.024261	0.058442	0.134737	-0.003510	
-0.029144	0.046540	0.091401	-0.008392	
-0.114290	0.042573	0.081635	-0.006256	
-0.178073	0.024567	0.092622	-0.010223	
-0.145113	-0.009308	-0.056001	-0.010529	
-0.085603	-0.049897	-0.153353	-0.009918	
-0.055085	-0.058137	-0.117647	-0.007172	
-0.017548	-0.067292	0.021210	-0.005341	
0.037995	-0.071565	0.005951	-0.005341	
0.076753	-0.081330	-0.033418	-0.005341	
0.080415	-0.080110	0.059358	-0.009308	
0.074311	-0.052339	-0.153353	0.002594	
0.038301	-0.010834	-0.290074	0.001678	
-0.009003	0.026398	-0.231785	-0.003510	
-0.047151	0.009308	0.422523	-0.008392	
-0.054475	0.028534	0.545815	-0.006256	
-0.046235	0.092622	0.195773	-0.007172	
-0.011749	0.129549	0.172580	-0.008392	
0.002289	0.081330	0.295568	-0.013275	
0.009613	-0.031281	0.235752	-0.003510	
0.012970	-0.188449	0.204623	-0.012054	
0.016327	-0.228123	0.034333	-0.005646	
0.025787	-0.134127	-0.322423	0.002289	
0.030670	-0.016327	-0.519264	0.003815	
0.028839	0.059968	0.045014	0.001068	
0.020599	0.080720	0.007782	-0.003815	
0.020294	0.078279	-0.223850	-0.000763	
0.009918	0.054780	-0.138704	-0.003815	
-0.085298	0.001678	-0.044709	0.000153	
-0.201266	-0.039826	0.074922	-0.011444	
-0.036469	-0.018158	0.060884	-0.001984	
0.041047	0.012054	0.034333	-0.009918	
0.092622	0.089570	0.012054	0.001678	
0.096895	0.135347	-0.001373	-0.010529	
0.056001	0.163119	0.001984	-0.002899	
-0.070954	0.161288	0.008087	-0.009308	
-0.061494	0.068513	0.004120	-0.008392	
0.048066	-0.016327	0.014191	-0.003510	
0.077363	-0.019989	0.038911	-0.006866	
0.088655	-0.043794	-0.020294	-0.009308	
0.092622	-0.048066	-0.108492	-0.006256	
0.068513	-0.057832	0.016937	-0.003510	
0.022125	-0.069123	0.409400	0.000153	
0.005035	-0.047761	-0.169528	0.003204	
-0.005646	-0.030975	-0.194858	-0.009918	
-0.012054	-0.024261	-0.143282	-0.006866	
-0.039826	-0.029449	-0.138399	-0.017853	
-0.056001	-0.017853	0.161593	-0.006256	
-0.061189	-0.018463	0.126192	-0.015106	
-0.055390	0.007172	0.058747	-0.004425	
-0.050202	0.011749	0.038606	-0.013885	
-0.005951	0.046235	0.032807	-0.006256	
0.002899	0.043183	0.020599	-0.012054	
0.001984	0.041963	0.022736	-0.004425	
-0.017242	0.032502	0.018463	-0.009613	
-0.042878	0.020905	0.013275	-0.011749	
0.006561	0.043183	0.001678	-0.012054	
0.136568	0.085603	0.004120	-0.008392	
0.194858	0.122530	0.009003	-0.011749	
0.124361	0.070039	0.011749	-0.015106	
-0.018158	-0.024261	0.020294	-0.004425	
-0.131380	-0.086518	0.016937	-0.007782	
-0.177768	-0.094759	0.015411	-0.006866	
-0.189670	-0.053254	0.002289	-0.005951	
-0.178378	-0.029144	-0.038606	-0.005646	
-0.171969	-0.027313	-0.047456	-0.007172	
-0.041047	-0.027313	0.025482	0.005951	
0.132906	-0.024261	-0.102388	-0.008392	
0.063935	0.017853	-0.003815	-0.002899	
-0.019379	0.066377	0.067597	-0.006866	
-0.088349	0.092927	0.132296	-0.005035	
-0.075227	0.031281	0.105745	-0.003510	
-0.009613	-0.045930	0.143282	-0.004425	
0.004120	-0.081941	0.001678	-0.007782	
0.040742	-0.065461	-0.039521	-0.008392	
0.028534	-0.054475	-0.016327	-0.006866	
-0.017548	-0.045320	-0.058137	-0.012970	
-0.079804	-0.014801	-0.221409	-0.005646	
-0.082551	-0.007782	-0.640421	-0.014496	
-0.031892	0.018768	-0.530556	0.008087	
-0.023651	0.033418	0.105440	0.016632	
0.001678	0.061189	0.565652	0.012665	
0.062715	0.069123	0.371252	-0.001373	
0.068513	0.075532	0.084687	-0.006256	
0.019684	0.055390	0.418860	-0.009003	
0.015717	0.113070	0.559243	-0.007782	
0.006256	0.170749	0.131075	-0.010529	
0.030670	0.090791	-0.114901	-0.012970	
0.075227	-0.060273	-0.262913	-0.011139	
0.089875	-0.172885	-0.223850	-0.011139	
0.088960	-0.187839	0.175632	-0.007172	
0.053864	-0.104830	-0.023651	-0.008392	
0.010529	-0.056001	0.040742	-0.007782	
-0.022125	-0.100252	0.315099	-0.009308	
-0.035554	-0.132906	-0.011749	-0.011139	
-0.025787	-0.109407	-0.370337	-0.011444	
-0.006866	-0.057221	-0.697490	0.009918	
-0.012360	-0.013885	-0.009308	0.008392	
0.008392	0.022125	0.111544	0.005951	
0.003204	0.049897	0.172580	0.004120	
0.014191	0.089570	0.269016	-0.003204	
0.041352	0.117342	0.027008	-0.020294	
0.042268	0.147860	0.196689	-0.009918	
-0.011749	0.131990	-0.271763	0.002594	
-0.046540	0.085603	-0.152437	0.000153	
-0.047761	0.070649	0.261997	-0.007782	
-0.055696	0.060578	-0.104830	-0.012054	
-0.046540	0.030365	0.323339	-0.019989	
-0.037995	0.003815	0.112154	-0.019379	
-0.034944	-0.015717	-0.706340	-0.009308	
-0.037080	-0.069123	-0.276951	0.010223	
-0.017548	-0.118258	0.353552	0.024567	
-0.033418	-0.131990	0.057527	0.008698	
-0.038301	-0.075837	-0.313268	-0.013580	
-0.049287	0.003204	0.317845	-0.026398	
-0.025177	0.078279	0.538796	-0.012970	
-0.019989	0.082246	0.180209	-0.012054	
-0.011139	0.052033	0.011749	0.001068	
-0.059052	0.037995	0.027924	-0.009918	
-0.125887	0.052644	-0.086518	-0.014496	
0.004120	0.072175	-0.085298	-0.015411	
0.023956	0.101168	-0.056001	-0.005035	
-0.021210	0.119173	-0.106356	-0.005951	
0.048066	0.155489	-0.106661	-0.006256	
0.146029	0.161899	-0.254978	-0.005951	
0.144197	0.066987	-0.021820	-0.001678	
0.114595	-0.077973	0.039216	-0.002289	
0.082551	-0.157016	-0.143892	-0.004425	
0.047151	-0.195468	0.215304	0.000458	
0.029144	-0.201266	0.101778	-0.005341	
0.027313	-0.133516	-0.060273	-0.013580	
-0.001068	-0.048066	-0.077058	-0.014496	
-0.037385	0.004425	0.079499	-0.005035	
-0.066987	-0.003510	0.327916	-0.005035	
-0.077973	-0.013580	0.048676	-0.004120	
-0.069428	-0.027008	-0.481117	-0.018463	
-0.032197	-0.015106	-0.531167	-0.002899	
0.001068	-0.021210	0.346838	-0.000763	
0.036469	-0.033723	0.371862	-0.001373	
0.052033	-0.026398	0.415504	-0.009918	
0.042268	-0.017548	0.216830	-0.015106	
0.016937	0.022430	-0.088655	-0.016022	
0.001068	0.056611	-0.077973	-0.009918	
-0.037385	0.076447	0.221104	0.006866	
-0.048982	0.037385	-0.168002	-0.009308	
-0.038301	0.022125	-0.102388	-0.019073	
-0.060578	0.011139	-0.065766	-0.013885	
-0.051423	-0.023651	-0.020294	0.007172	
-0.048066	-0.076142	-0.213168	-0.000153	
-0.028229	-0.110018	-0.158542	-0.010529	
-0.018463	-0.099337	0.126192	-0.015106	
0.001068	-0.017548	0.218356	0.002899	
0.002289	0.045320	0.044404	-0.009003	
0.008392	0.089265	0.039521	-0.003204	
-0.008087	0.104830	-0.026093	-0.003204	
-0.016327	0.115206	-0.053559	-0.003204	
-0.009308	0.092927	-0.001373	-0.003510	
-0.014801	0.050508	-0.002899	-0.001373	
-0.023651	0.026398	-0.033113	-0.003510	
-0.022430	0.025787	-0.143587	-0.005646	
0.001068	0.037080	-0.193942	-0.003204	
0.028839	0.049287	0.060273	-0.005341	
0.045014	0.050202	0.382238	-0.001678	
0.066072	0.035249	0.016022	-0.014191	
0.195163	0.042573	0.120394	-0.005035	
0.127108	0.055085	0.077058	-0.009918	
-0.157626	0.060578	-0.156405	0.006561	
-0.225986	0.041047	-0.266880	0.009918	
-0.062409	0.042268	-0.094759	0.002289	
0.002289	-0.009308	-0.051728	-0.011444	
-0.018158	-0.049592	-0.098116	-0.005646	
-0.027618	-0.086823	0.221104	-0.011749	
-0.042878	-0.081941	0.210422	0.002289	
-0.058442	-0.049287	-0.113070	-0.005646	
-0.027924	-0.028229	-0.359350	-0.003510	
0.011749	-0.043489	0.180209	0.005341	
0.016937	-0.062715	0.370947	-0.003815	
-0.011444	-0.035249	-0.055390	-0.005341	
-0.026093	-0.030060	0.149996	-0.017548	
0.013885	-0.036469	0.095369	-0.006866	
0.019073	-0.102083	0.099337	-0.011749	
0.041352	-0.164035	0.047761	-0.013580	
0.059358	-0.153963	-0.077058	-0.015717	
0.030365	-0.106356	-0.086518	-0.012360	
-0.107882	-0.029449	-0.068818	-0.013580	
0.007782	0.073091	-0.023346	-0.005035	
0.233616	0.118258	0.065156	-0.011444	
0.168918	0.123140	0.044404	-0.012970	
0.091401	0.101473	0.019073	-0.011444	
-0.046235	0.057527	-0.048371	-0.002899	
-0.097200	-0.006866	0.032807	0.010223	
-0.085908	-0.016327	0.003204	0.005035	
-0.071565	0.047456	-0.642252	-0.001984	
-0.059052	0.076753	-0.834210	-0.008087	
-0.042268	0.052033	0.359961	-0.005951	
-0.029755	0.047456	0.702678	-0.007782	
-0.014801	0.039826	0.543069	-0.003510	
-0.014801	0.008392	0.410926	0.001068	
-0.042878	-0.025482	-0.116732	0.003204	
-0.063630	-0.009308	-0.356604	-0.019379	
-0.047761	0.042573	-0.080110	-0.005951	
-0.044404	0.048066	0.301061	-0.016632	
0.044099	0.037995	0.403601	-0.005646	
0.061799	-0.009613	0.100863	-0.007172	
0.052033	-0.046540	-0.028534	-0.013885	
0.018463	-0.034028	0.098726	-0.009918	
-0.005341	0.014801	0.131075	-0.000153	
-0.008087	0.046235	-0.011444	-0.006866	
0.004730	0.045320	-0.070039	-0.003510	
0.009003	0.030975	-0.056916	-0.003510	
0.008087	0.038911	-0.049287	-0.007782	
0.005951	0.026398	-0.248875	-0.004120	
0.020599	-0.009613	-0.209506	-0.010223	
0.021210	-0.015106	-0.117037	-0.006256	
0.002899	-0.006866	-0.136873	-0.011139	
0.000458	0.008087	-0.069734	-0.002289	
0.003815	0.050202	-0.043794	-0.001984	
0.004425	0.078584	0.010529	-0.002899	
-0.021210	-0.009613	-0.003815	-0.006866	
-0.006256	-0.071565	-0.008087	-0.000153	
0.001984	-0.072175	-0.012360	-0.009613	
0.017853	-0.062715	-0.003204	-0.001984	
0.007782	-0.048371	-0.002289	-0.001373	
-0.011749	-0.039826	0.001984	-0.004425	
-0.047761	-0.048676	0.001068	-0.005646	
-0.055390	-0.018463	0.014191	0.002289	
-0.049287	0.014801	0.032807	-0.001373	
-0.031281	0.024261	0.053559	-0.010223	
-0.022125	0.018463	0.070954	-0.009003	
-0.138399	0.012054	0.067292	-0.000153	
-0.100557	0.036469	0.085298	0.003204	
0.025177	0.020294	0.093232	-0.008392	
0.058747	0.007782	0.119478	0.006256	
0.043794	-0.015717	-0.169223	-0.001373	
0.042268	-0.038606	-0.218662	0.003815	
0.032502	-0.055085	-0.196994	-0.006256	
0.027924	-0.012054	-0.239719	-0.002289	
0.012970	-0.015411	-0.317540	-0.008087	
0.016937	-0.017242	-0.167087	-0.005646	
0.017242	0.016022	0.152437	-0.005341	
0.012360	0.019989	0.326695	-0.009003	
0.021210	0.018158	0.612650	0.002594	
0.021210	0.013885	0.243382	-0.005646	
0.000458	-0.000763	-0.046845	-0.012054	
-0.039521	0.004425	0.067292	-0.011139	
-0.086213	0.059052	0.091401	-0.016327	
-0.112459	0.081330	0.060273	-0.012054	
-0.047151	0.057221	0.075227	-0.006256	
0.016327	0.050813	0.116121	-0.014191	
0.098726	0.120394	0.098726	-0.012360	
0.229343	0.151217	-0.260471	-0.010223	
0.258335	0.123140	-0.426490	-0.002899	
0.052644	0.006256	-0.030365	0.002594	
-0.117647	-0.110018	0.492104	0.003204	
-0.152742	-0.135653	-0.361181	-0.009003	
-0.081330	-0.090486	-0.628519	-0.005646	
-0.057832	-0.032197	-0.075532	0.000763	
-0.041047	0.029144	0.416419	0.001068	
-0.073396	0.041047	0.566873	-0.001678	
-0.111238	0.019073	0.260777	-0.013275	
-0.109713	-0.139009	-0.323644	-0.007782	
-0.047456	-0.295873	-0.339513	-0.004120	
0.017853	-0.277561	0.211947	-0.015106	
0.029144	-0.140841	-0.108492	-0.007782	
0.015717	0.002899	0.378271	-0.003204	
0.015717	0.083467	0.084992	0.005035	
-0.003815	0.104525	0.119478	-0.003204	
-0.054170	0.049897	0.037080	-0.016022	
-0.031892	0.016937	-0.044709	0.000153	
-0.016937	0.019073	0.066377	-0.010529	
-0.016937	0.037385	-0.001068	-0.005951	
-0.034028	0.055390	-0.049897	-0.014496	
0.000458	0.067597	0.108187	-0.011444	
0.013275	0.056916	0.011139	-0.008087	
0.017853	0.038911	-0.127413	0.000153	
0.040742	-0.035249	0.021515	-0.005646	
0.056001	-0.077668	0.160373	-0.000763	
0.090486	-0.044404	-0.131075	-0.002289	
0.096895	0.049897	-0.067903	-0.013580	
0.063020	0.109102	-0.298619	-0.022736	
0.037995	0.100557	-0.262302	-0.005646	
0.031892	0.079194	0.174106	0.019379	
-0.003815	0.062104	-0.044099	-0.006256	
-0.032502	0.090791	-0.466468	-0.017853	
-0.035554	0.112459	-0.088655	-0.009308	
-0.025482	0.084077	0.330358	0.004730	
-0.095980	0.038301	0.443885	-0.006866	
-0.102083	0.030975	0.450904	-0.008087	
-0.065766	0.031892	0.056306	-0.009308	
0.059358	0.039826	-0.003815	-0.005951	
0.136568	0.031892	0.015411	-0.016022	
0.063935	0.004730	0.004730	-0.009003	
-0.032502	-0.029449	-0.118563	-0.019989	
-0.048982	-0.071870	-0.283971	-0.013275	
-0.047456	-0.081330	-0.205844	0.015106	
-0.034333	-0.089570	-0.034333	0.028229	
-0.021820	-0.097506	0.500038	0.011444	
-0.017548	-0.088349	0.024261	-0.014496	
-0.008087	-0.043183	-0.328221	-0.012970	
-0.024261	-0.019379	-0.044404	-0.013275	
-0.035859	-0.001984	0.240635	-0.011749	
-0.056306	-0.019684	0.135347	-0.022736	
-0.051118	-0.007782	0.047761	-0.011444	
-0.001068	-0.006866	-0.407264	-0.016327	
0.060273	0.003815	-0.708476	-0.005035	
0.114290	0.003815	-0.213168	-0.001984	
0.092927	-0.001984	-0.078889	0.011139	
0.026398	-0.001068	0.104219	-0.007172	
-0.019684	0.039216	0.097200	0.005341	
-0.034028	0.066987	0.314488	0.001678	
-0.017548	0.069123	0.366674	-0.016022	
0.016327	0.068818	0.419776	-0.015717	
-0.012054	0.044404	0.303197	-0.007477	
-0.040132	-0.004425	0.147554	-0.007782	
-0.053864	-0.035859	0.158237	-0.014496	
-0.049897	-0.032502	-0.009003	-0.009918	
-0.038301	-0.012054	0.014191	-0.013885	
-0.028839	-0.007172	-0.124666	-0.009308	
-0.021210	-0.037080	-0.185702	-0.012054	
0.003815	-0.029144	-0.117342	-0.001373	
0.015717	-0.008087	0.062409	-0.004425	
-0.001678	0.010529	0.026398	-0.006866	
-0.063630	-0.020905	-0.006866	-0.011139	
-0.067292	-0.019379	0.061494	0.012665	
-0.059052	0.007782	-0.028534	0.009308	
-0.013275	0.017242	0.156711	0.010223	
0.014801	0.010834	0.073701	-0.002899	
-0.056306	-0.010834	-0.357214	-0.018463	
-0.075837	0.001678	-0.086823	-0.017853	
0.087434	0.029755	0.120394	-0.017548	
0.131380	0.070039	0.360266	-0.008392	
0.129244	0.053254	0.153658	-0.016632	
0.104525	0.049287	-0.022430	-0.009003	
0.050202	0.060884	-0.046235	0.001984	
0.037690	0.029144	-0.116732	-0.002899	
0.070344	-0.063630	-0.220188	-0.011749	
0.169223	-0.084687	-0.140841	-0.005341	
0.063325	-0.061494	-0.068818	-0.015106	
-0.107271	-0.029755	-0.158542	-0.009003	
-0.198215	-0.062715	-0.532998	-0.011444	
-0.162814	-0.132296	-0.904707	-0.000763	
-0.131685	-0.138704	-0.757000	0.000458	
-0.087739	-0.096285	0.079194	-0.006866	
-0.020294	-0.038606	1.067063	-0.001984	
0.051728	0.008087	0.740215	-0.008392	
0.060578	0.024261	0.517433	-0.001984	
0.006256	0.056611	0.226902	-0.012970	
-0.045625	0.094454	0.149691	-0.017548	
-0.051423	0.102694	0.131075	-0.012360	
-0.035554	0.098421	0.116121	-0.002289	
-0.027313	0.082246	0.074616	-0.007782	
0.001678	0.086823	-0.016327	-0.004120	
0.018768	0.096285	-0.064546	-0.002289	
0.027313	0.095369	-0.090180	0.002289	
0.018768	0.070039	-0.110323	0.000153	
0.025177	0.058442	-0.107271	0.001068	
0.032197	0.028229	-0.027008	-0.004120	
0.083161	0.012054	0.082856	0.005035	
0.099947	0.008698	-0.087129	-0.001984	
0.056001	0.050813	-0.022430	0.001678	
0.012360	0.062409	-0.028229	-0.005035	
-0.005951	0.066377	-0.043794	-0.001373	
-0.009918	0.021820	-0.023041	0.000763	
-0.069123	-0.022125	-0.035554	-0.005646	
-0.115816	-0.076142	-0.126802	0.001984	
-0.113680	-0.145723	-0.376135	-0.000153	
-0.056001	-0.178378	-0.464942	0.002289	
-0.063020	-0.146029	-0.215915	0.003815	
-0.023651	-0.103609	-0.205234	0.006866	
0.005035	-0.073396	0.194552	-0.001984	
-0.009308	-0.041963	0.847944	0.002289	
-0.041352	-0.052339	0.289464	-0.005035	
-0.023346	-0.051728	0.198825	-0.005341	
-0.012054	-0.061494	0.158542	-0.017242	
0.012054	-0.025482	0.196078	-0.014191	
0.038911	0.030975	0.124971	-0.014191	
0.062715	0.097200	0.122530	-0.004425	
-0.030365	0.095675	0.082856	-0.003204	
-0.055696	0.097200	0.027008	-0.008392	
-0.007477	0.122530	-0.013275	-0.010223	
0.036775	0.133821	-0.041352	-0.007782	
0.060578	0.139009	-0.076447	-0.005646	
0.055085	0.080415	-0.163119	-0.014496	
0.030060	0.000153	-0.198215	-0.011139	
-0.010223	-0.037080	-0.014191	-0.005646	
-0.033723	-0.014191	0.265049	-0.002899	
-0.058442	-0.019684	-0.049897	-0.010223	
-0.023956	-0.038606	-0.016937	-0.011444	
0.028839	-0.018158	-0.029755	-0.028534	
0.056001	-0.004425	-0.056916	-0.014191	
0.084382	-0.039216	-0.052033	-0.007172	
0.129549	-0.061799	0.004730	-0.000763	
0.077363	-0.044404	-0.005951	-0.004425	
-0.005646	0.066682	-0.085298	-0.009003	
-0.055696	0.101168	-0.023956	-0.003815	
-0.078584	0.004425	0.048676	0.004120	
-0.061494	-0.098116	-0.352942	0.009918	
-0.043489	-0.147554	-0.482033	0.003815	
-0.045625	-0.124666	0.013885	-0.000763	
-0.049287	-0.065766	0.072785	-0.013885	
-0.023041	-0.034333	0.034944	-0.005951	
-0.001984	-0.047456	0.461585	0.000763	
0.012665	-0.010834	0.559854	0.004730	
0.016937	0.036469	-0.023651	-0.006256	
0.020599	0.072175	-0.119478	-0.003204	
0.016937	0.062104	-0.044099	-0.009918	
0.013885	0.074616	0.059358	-0.015106	
0.005646	0.093232	0.136568	-0.017853	
-0.006256	0.099642	0.172275	-0.010529	
-0.023346	0.108187	0.130465	-0.017853	
-0.022125	0.118563	-0.012360	-0.007172	
-0.005035	0.117342	-0.136873	-0.003510	
0.005646	0.059052	-0.106661	-0.002899	
0.007782	-0.004120	-0.051728	0.000458	
0.021210	-0.048371	0.065156	-0.002899	
0.013885	-0.078279	-0.108187	-0.012360	
-0.019073	-0.068513	-0.177463	-0.014191	
0.062409	-0.058137	-0.040437	-0.008392	
0.158237	-0.076142	0.110323	-0.014191	
0.032197	-0.061494	0.018463	0.000458	
-0.126192	-0.052339	-0.011139	-0.007782	
-0.182040	-0.028534	-0.189975	-0.009308	
-0.134127	-0.027313	-0.281835	-0.007782	
-0.112154	-0.029144	-0.014496	0.001068	
-0.097506	-0.021210	0.372778	0.000763	
-0.047456	-0.012054	-0.217441	-0.002289	
-0.044404	0.009003	-0.253452	-0.004120	
-0.084382	0.021820	0.189975	-0.007172	
-0.041657	0.019379	0.337682	-0.008087	
0.013885	0.029755	0.312352	-0.001373	
0.047761	0.074006	0.151522	-0.007172	
0.048066	0.089265	0.119173	-0.022125	
0.015717	0.084687	0.127108	-0.019379	
-0.106356	0.037995	0.200961	-0.012360	
-0.003204	-0.041047	-0.051423	0.002289	
0.105440	-0.092317	-0.246433	-0.009613	
0.120394	-0.055696	-0.195163	-0.008087	
0.087129	0.000763	-0.086518	-0.010223	
0.045014	0.020905	0.068818	-0.002289	
0.018158	0.005035	0.067903	-0.005035	
0.028534	-0.001373	0.002594	-0.006866	
0.026703	-0.003510	-0.294042	-0.010223	
0.010223	0.003815	-0.434424	0.000763	
-0.019073	0.019989	-0.456092	0.000153	
-0.018158	0.019379	-0.229649	-0.000153	
0.030060	0.016327	0.193027	-0.005646	
0.042878	0.030975	0.788129	0.005951	
0.033723	0.045320	0.326695	0.009308	
0.007172	0.061189	-0.106966	-0.003204	
-0.008392	0.048066	0.258640	0.001678	
-0.016327	0.019989	0.154268	-0.005951	
-0.004425	-0.009918	0.040742	-0.002899	
0.046540	-0.025482	-0.012360	-0.002289	
0.079804	-0.023651	-0.154879	-0.001068	
0.003204	-0.022125	-0.117342	-0.002899	
-0.062104	-0.009308	0.099642	-0.002899	
-0.081635	-0.028534	0.112154	-0.009918	
-0.066377	-0.019379	-0.084077	-0.004425	
-0.058442	0.023956	-0.065461	-0.009308	
-0.053864	0.033113	0.207065	-0.002899	
-0.052339	-0.003815	-0.006256	-0.004425	
-0.036164	-0.015411	-0.038301	-0.006866	
-0.015106	-0.002289	-0.062715	-0.000763	
-0.021210	0.030975	-0.139009	-0.003815	
-0.026093	0.052339	-0.064851	-0.012054	
-0.013885	0.039216	-0.036775	-0.009003	
-0.016022	-0.023041	0.045320	0.000763	
-0.013275	-0.062409	0.015411	-0.009308	
-0.003510	-0.056001	0.015411	-0.009308	
-0.011749	-0.035859	0.059052	-0.017242	
0.002594	-0.011444	0.079194	-0.012970	
0.023041	0.008087	-0.059663	-0.007172	
0.098421	0.040132	-0.119478	-0.005646	
0.105440	0.044099	0.019379	-0.009613	
0.032197	0.038911	0.188449	0.001068	
-0.037690	0.043183	-0.019989	-0.005341	
-0.049897	0.029144	-0.105440	-0.005035	
-0.005951	-0.054170	-0.133211	-0.014191	
0.024261	-0.100557	0.097506	0.000763	
0.013885	-0.122530	0.137789	-0.004425	
-0.111544	-0.098726	0.093537	-0.014191	
-0.129549	-0.042573	0.083161	-0.002289	
-0.005035	-0.011444	-0.131075	-0.009308	
0.049897	0.075532	-0.244297	-0.006256	
0.018158	0.146029	-0.035554	-0.005646	
-0.026398	0.145723	0.158237	-0.001678	
-0.053864	0.008087	0.201877	-0.008392	
-0.086213	-0.051728	0.072785	-0.000763	
-0.071565	-0.004425	-0.003510	-0.005646	
0.019073	0.079499	-0.115206	-0.006866	
0.076142	0.080110	-0.074006	-0.017242	
0.094759	0.059358	0.119173	-0.011444	
0.055085	-0.004425	0.022125	-0.009308	
0.076447	-0.074311	0.076753	-0.007782	
0.046235	-0.079804	0.219578	-0.008392	
0.017853	-0.040437	0.045014	-0.014191	
-0.034028	0.004425	-0.309300	-0.015717	
-0.043183	0.027313	-0.551003	-0.016022	
0.088349	0.025177	-0.084992	-0.000763	
0.096895	-0.001068	0.570840	0.002899	
-0.001678	-0.017242	-0.117647	-0.001373	
-0.107576	0.024872	-0.034638	0.002289	
-0.120394	0.102388	0.106050	0.000458	
-0.080110	0.159152	0.063630	-0.001984	
-0.053254	0.100863	0.167087	-0.005951	
-0.050202	-0.096895	0.103609	-0.008392	
-0.009918	-0.196689	-0.012970	-0.004120	
0.039826	-0.150911	-0.085298	-0.009613	
0.006866	-0.110933	0.091706	-0.012054	
-0.006866	-0.062409	0.111238	-0.004120	
-0.019989	-0.015717	0.054475	-0.001984	
-0.033723	0.027313	0.046235	-0.002899	
-0.034944	0.033113	-0.003815	-0.005951	
-0.012970	0.012665	-0.009918	-0.008087	
-0.002289	0.028839	-0.028534	-0.009918	
0.012054	0.027313	-0.031892	-0.009003	
0.009003	0.007782	-0.115206	-0.010223	
0.014191	0.006866	-0.191501	-0.004425	
0.032197	0.004730	-0.144503	-0.009918	
0.037690	0.012970	0.105440	-0.000763	
0.019073	0.041047	0.195163	0.000458	
-0.000153	0.074616	-0.027618	-0.006866	
-0.031892	0.089570	0.037080	-0.003510	
-0.026093	0.113680	0.022736	-0.000763	
0.011749	0.121309	0.117342	-0.010529	
0.021820	0.108187	0.152742	-0.003204	
0.008392	0.038911	0.226597	-0.005341	
0.040742	-0.029449	0.010834	0.020294	
0.039216	-0.081941	-0.257725	0.002594	
-0.063935	-0.094149	-0.365454	-0.016022	
-0.109713	-0.094759	-0.374914	-0.010223	
-0.052949	-0.043183	-0.011139	-0.001984	
-0.031892	0.027924	0.372168	0.003815	
0.000763	0.040437	0.021515	-0.005951	
0.044404	0.060884	-0.110933	-0.013275	
0.069428	0.062104	-0.144503	-0.011749	
0.042878	0.050813	0.061799	-0.004425	
-0.009613	-0.047456	0.372473	-0.009003	
-0.030060	-0.152437	0.178073	0.002594	
-0.012360	-0.150606	-0.075532	0.001678	
-0.063935	-0.111849	-0.041352	0.005341	
-0.134432	-0.075227	-0.102083	-0.010223	
0.013275	-0.011139	0.064546	-0.016022	
0.058747	-0.000153	0.169833	-0.013580	
0.096285	-0.010223	-0.197299	-0.011444	
0.117342	-0.043489	-0.692912	-0.015106	
0.117037	-0.062409	-0.515297	-0.016327	
0.207675	-0.026398	0.275120	-0.008392	
0.189059	0.065156	1.009689	-0.008087	
-0.005951	0.131685	0.424964	-0.014496	
-0.174716	0.114901	-0.014191	-0.017548	
-0.254368	0.022125	-0.476234	0.006561	
-0.256504	-0.077668	-0.050202	0.002899	
-0.176547	-0.101473	-0.087739	0.009918	
-0.104219	-0.041963	0.038606	0.000763	
-0.031587	0.092622	0.373999	-0.000763	
0.044404	0.181430	0.104830	-0.005341	
0.059358	0.186923	0.202487	-0.007172	
-0.001068	0.174716	0.221409	-0.013885	
-0.006866	0.137484	0.061494	-0.011139	
-0.032197	0.028839	-0.152437	-0.017548	
-0.067292	-0.135958	-0.139315	-0.008392	
-0.060578	-0.207980	-0.091706	-0.001678	
-0.023041	-0.180820	0.375830	0.002899	
0.007782	-0.122225	0.111238	0.000153	
0.026398	-0.031587	-0.225681	-0.011444	
0.067292	0.026398	-0.036164	0.000763	
0.089265	0.036469	0.077058	-0.009308	
0.064546	0.038301	0.068818	-0.012054	
-0.003510	0.020599	-0.029144	-0.006866	
0.001984	0.046235	-0.096285	0.001984	
0.034944	0.080720	-0.009918	0.004425	
0.052949	0.117647	-0.108492	0.008087	
0.040742	0.138704	-0.364843	-0.010529	
0.034028	0.114901	-0.674602	-0.007782	
0.019073	0.028839	0.130465	-0.009003	
-0.011444	-0.026398	0.010529	-0.002289	
-0.019073	-0.039521	-0.167697	-0.009613	
0.003204	-0.037385	-0.002289	-0.005341	
0.023041	-0.041963	0.306554	-0.006256	
0.027924	-0.045320	0.310521	-0.007782	
0.027313	-0.009003	0.095980	-0.005341	
-0.005341	0.016937	0.071565	-0.010529	
-0.015106	0.022125	0.050813	-0.008392	
-0.076142	0.022125	-0.056611	-0.012970	
-0.113375	0.016022	-0.164035	-0.013275	
-0.080415	0.031281	0.299535	-0.007172	
-0.014191	0.008698	0.554360	0.002899	
0.045014	-0.051118	0.070039	-0.007782	
0.041047	-0.108492	-0.238804	-0.003204	
0.008087	-0.159152	-0.484169	-0.017548	
0.102388	-0.131990	-0.276035	-0.003510	
0.121309	-0.057832	0.055696	-0.001068	
-0.004425	0.002594	0.146334	-0.001373	
-0.133516	-0.007172	-0.076447	-0.009003	
-0.140535	-0.019684	-0.241856	-0.001373	
-0.070954	-0.012970	0.194552	-0.002289	
0.018158	0.008392	0.310216	-0.003510	
0.017242	0.054475	0.149385	-0.013275	
-0.021820	0.113680	0.276951	-0.012054	
-0.070954	0.169223	0.095064	-0.008392	
-0.056306	0.180820	0.065766	-0.009308	
-0.002899	0.112764	-0.030365	-0.006866	
-0.002289	-0.059052	-0.049897	-0.014191	
-0.007172	-0.119783	-0.028229	-0.003204	
-0.006866	-0.082856	-0.061799	-0.008087	
0.004120	-0.029449	-0.080720	-0.000763	
0.001984	0.004120	-0.118868	-0.003510	
0.023956	0.041963	-0.197909	-0.007172	
0.025177	0.046235	-0.156405	-0.009003	
-0.019073	0.003204	-0.018158	-0.000153	
0.011749	-0.063935	-0.016022	-0.001984	
0.083467	-0.117037	0.208591	-0.007782	
0.043183	-0.111544	0.294042	-0.011749	
0.024872	-0.067597	0.103914	-0.010223	
0.017853	0.000458	-0.032502	-0.001373	
-0.009308	0.066987	-0.116426	-0.004120	
-0.000153	0.094149	0.010529	0.006561	
-0.008087	0.100863	0.250401	-0.000153	
-0.012360	0.068818	-0.279697	-0.005646	
-0.051423	0.011749	-0.059663	-0.011749	
-0.053559	-0.013275	-0.159762	-0.007477	
-0.023956	-0.011444	-0.022430	-0.007782	
-0.017548	0.009003	0.095064	0.001678	
-0.015411	-0.029144	0.028229	-0.004120	
0.000458	-0.027008	0.162509	-0.004120	
0.004730	0.023041	0.022125	-0.004425	
0.003815	0.060273	-0.035249	-0.001984	
0.013275	0.065461	0.014191	0.000763	
0.013275	0.052644	-0.047761	-0.000763	
0.007782	0.062409	0.026703	-0.001678	
0.014191	0.072785	0.028534	-0.005035	
0.016327	0.074311	-0.116426	-0.005646	
0.012054	0.048982	-0.170138	-0.007172	
0.006256	0.004730	0.024567	-0.007477	
-0.003510	-0.026398	0.192416	-0.012970	
-0.020905	-0.026398	0.088044	-0.007477	
-0.050202	-0.018463	0.045320	-0.012054	
-0.055696	-0.028229	0.043489	-0.010223	
-0.062409	-0.052644	0.024567	-0.010223	
-0.043794	-0.059052	0.025177	-0.012970	
-0.018463	-0.066072	0.009918	-0.021515	
0.013275	-0.053254	0.010529	-0.013885	
0.013275	-0.043183	0.004120	-0.007477	
-0.015106	-0.012360	-0.001678	-0.003815	
0.078279	0.056611	0.024872	-0.016327	
0.099337	0.094454	0.099642	-0.011749	
0.034638	0.073091	0.031587	-0.012970	
-0.023041	0.056306	-0.133516	-0.013275	
-0.019989	0.019989	-0.230259	-0.000153	
0.052339	-0.067903	-0.410621	0.001678	
0.045320	-0.110323	-0.071870	-0.005951	
-0.015106	-0.091706	0.446021	-0.011749	
-0.009308	-0.065461	0.102388	0.001068	
-0.015717	-0.060578	0.074922	0.006866	
-0.029144	-0.061189	-0.231480	0.009308	
-0.088349	-0.035249	0.109407	-0.008392	
-0.140535	-0.012054	0.107882	-0.009003	
-0.121614	-0.031587	-0.198215	-0.003510	
-0.067292	-0.019989	0.184482	-0.011749	
-0.038301	0.000763	0.281529	-0.017853	
-0.001068	0.065156	0.070039	-0.011139	
0.004730	0.120394	0.087129	-0.007172	
0.013275	0.142672	0.305028	0.001068	
0.030670	0.114290	0.322423	0.006561	
0.016937	0.083161	0.037080	0.000763	
-0.000763	0.054780	-0.276646	0.006256	
0.016937	0.023346	-0.301976	-0.016327	
0.039216	0.020294	-0.331578	-0.007172	
0.000153	0.024567	-0.280613	0.000153	
0.025177	0.007172	-0.187839	0.005035	
0.020905	-0.042573	0.088655	-0.012970	
0.028534	-0.042268	0.151522	-0.003204	
0.094149	-0.061189	-0.349585	-0.010223	
0.255283	-0.150301	-0.015717	-0.006866	
0.172885	-0.191195	0.235447	0.010834	
-0.042878	-0.072480	0.086213	0.017242	
-0.149385	0.030365	0.247349	-0.008392	
-0.108187	0.048371	0.036164	-0.017242	
-0.112459	0.063020	0.110323	-0.014191	
-0.130159	0.059358	0.635843	-0.000153	
-0.109713	0.011749	-0.178683	0.002289	
-0.076447	-0.000763	-0.027008	0.005035	
-0.063935	-0.035554	0.206149	0.005035	
-0.046235	-0.038606	-0.332799	-0.002899	
-0.012054	-0.007172	-0.026093	-0.016327	
0.008392	0.013275	0.378576	-0.028534	
0.032807	0.029755	0.035554	-0.024567	
0.025787	0.000153	-0.001068	-0.025482	
0.031892	-0.012970	-0.062715	-0.009918	
0.001984	-0.007172	0.030060	-0.015411	
-0.071259	0.021210	0.103609	-0.005951	
-0.041352	0.071259	-0.163730	-0.010529	
0.045320	0.142061	-0.175326	-0.001373	
0.052033	0.117342	0.088655	-0.016327	
0.074006	0.076447	0.011749	-0.001984	
0.092622	0.057221	-0.015717	0.006256	
0.092622	0.050813	0.015411	0.013275	
0.064240	0.032502	-0.017548	0.001068	
0.027924	0.006866	0.051423	-0.007477	
-0.006866	-0.028229	-0.303502	-0.013885	
-0.036164	-0.064240	-0.826886	-0.008392	
-0.029755	-0.094454	-0.820783	0.004425	
-0.045930	-0.075532	0.550698	0.012360	
-0.063935	-0.036469	0.383764	0.000763	
-0.063020	-0.035249	0.245518	-0.020599	
-0.033723	-0.035249	0.200351	-0.003510	
-0.024261	-0.049897	-0.118868	-0.013580	
-0.001984	-0.023956	0.050813	-0.009003	
0.009613	-0.006256	0.101168	-0.009918	
0.023041	0.027924	-0.136568	-0.009613	
0.019684	0.052644	0.102388	-0.006256	
0.025787	0.064240	0.309300	-0.005035	
0.028534	0.038911	0.128023	-0.012054	
0.013885	0.028534	0.147249	-0.015411	
0.001984	0.041047	-0.052949	-0.006866	
0.014496	0.052644	-0.204928	0.004120	
0.049287	0.079194	-0.088349	0.008087	
0.028534	0.083467	0.080720	-0.002899	
-0.052033	0.058747	0.251926	-0.004120	
-0.057832	-0.027313	0.119173	-0.010223	
0.003204	-0.142977	0.126497	-0.006866	
0.021210	-0.204623	0.010529	-0.006866	
0.029144	-0.160068	-0.092317	-0.009308	
0.031281	-0.056611	-0.042573	-0.005646	
-0.009003	0.019379	-0.084687	-0.005035	
-0.031281	0.076753	-0.019684	-0.011139	
-0.053254	0.113680	0.012665	0.000763	
-0.067903	0.076447	-0.031587	-0.012054	
-0.083772	0.016632	-0.051423	-0.006866	
-0.099947	-0.022430	-0.033418	-0.011444	
-0.068513	-0.013885	0.002289	-0.003204	
-0.041657	-0.029755	0.037080	0.000153	
-0.015106	-0.063630	-0.008087	-0.003204	
-0.001984	-0.088044	-0.146334	-0.005646	
-0.010223	-0.071259	-0.262608	-0.001678	
-0.023041	-0.028229	-0.155184	-0.003815	
-0.014191	0.011749	0.092011	0.001678	
0.003204	0.043489	0.026093	0.001678	
0.008392	0.052339	-0.041352	-0.014496	
0.020294	0.057527	0.244907	-0.001984	
0.023651	0.038911	0.338902	-0.005646	
0.052644	0.048982	0.002594	-0.002289	
0.044404	0.087739	-0.203097	-0.004425	
0.110628	0.095675	0.061494	-0.005035	
0.162204	0.049287	0.346838	-0.012054	
0.121920	-0.015717	0.233616	-0.013885	
-0.000763	-0.045320	-0.054780	-0.014191	
-0.083161	-0.037080	-0.009918	-0.009918	
-0.154573	-0.009613	-0.197299	-0.010529	
-0.204623	-0.025177	-0.063630	-0.013275	
-0.035554	-0.085603	0.286717	-0.001373	
0.045014	-0.110933	0.123140	-0.003204	
0.084382	-0.047761	-0.207980	0.002899	
0.050508	0.047456	-0.453040	-0.008087	
0.006256	0.125582	-0.453040	-0.002899	
-0.041352	0.144503	0.097506	-0.001678	
-0.063020	0.098421	0.086823	0.003815	
-0.077363	0.013885	0.316014	-0.009003	
-0.075837	-0.001373	-0.013580	-0.004120	
-0.053559	0.003815	-0.119173	-0.007477	
-0.017853	-0.018158	-0.180209	-0.010529	
0.002289	-0.063630	0.092011	-0.017242	
0.027924	-0.063935	0.142061	-0.010529	
0.030060	-0.033113	-0.214389	-0.009308	
0.033113	-0.030060	-0.420691	0.000153	
0.028839	-0.020905	-0.499123	0.001068	
0.025177	0.007172	-0.066072	-0.009003	
0.041047	0.039826	0.734417	-0.007172	
0.034028	0.057221	0.740520	0.006866	
0.009613	0.055390	0.325475	0.009918	
0.002289	0.026703	0.265965	-0.000763	
-0.003510	0.008087	0.196994	-0.003510	
-0.014801	0.003204	0.212863	-0.015106	
-0.011749	0.013885	-0.104830	-0.016632	
-0.016327	0.005035	-0.094759	-0.017548	
0.003204	0.005035	0.022125	-0.003815	
0.054780	0.006561	0.207065	-0.007172	
0.054170	0.016022	0.165866	-0.011444	
-0.007782	0.024261	0.017242	-0.018463	
-0.037690	0.009003	-0.134737	-0.015106	
-0.006256	-0.017853	-0.269932	-0.010223	
0.014801	-0.001068	-0.211032	0.008087	
-0.010834	0.058442	0.052339	0.015106	
-0.029755	0.104219	0.024261	-0.005951	
-0.043183	0.063020	-0.251011	-0.021515	
-0.075532	-0.085603	-0.159457	-0.007172	
-0.068513	-0.155794	0.012665	-0.019073	
-0.052339	-0.130770	-0.156711	-0.026398	
-0.059358	-0.068513	-0.241550	-0.010529	
-0.042878	-0.056001	0.061799	-0.013580	
-0.008087	-0.071259	0.564736	0.002899	
-0.020905	-0.048676	0.167087	0.009308	
-0.034028	-0.017548	-0.064851	0.005951	
-0.051423	-0.001373	-0.308690	-0.005951	
-0.035554	0.023041	-0.553445	0.004120	
0.001984	0.034638	-0.435950	-0.000153	
0.031892	0.033418	-0.101473	0.000763	
0.030365	0.045014	0.353552	0.009003	
0.031281	0.052339	0.786298	0.002899	
0.036469	0.051118	0.011749	-0.004120	
0.023651	0.044709	-0.771343	-0.024567	
0.006256	0.040437	-0.694133	-0.011749	
-0.062409	0.028534	0.206149	-0.005341	
-0.119173	0.045014	0.554666	0.001678	
-0.068208	0.072785	0.746014	-0.004120	
0.004730	0.097200	0.359961	0.012665	
0.056001	0.064851	0.321507	0.007172	
0.097200	-0.009003	-0.209506	0.003204	
0.107882	-0.155184	-0.359961	-0.013580	
0.117037	-0.169833	-0.186313	-0.013275	
0.104219	-0.048371	0.240635	-0.015106	
0.087434	0.047456	-0.080720	-0.008392	
0.043183	0.074922	-0.273899	-0.001984	
0.002594	0.022125	0.348059	0.001678	
-0.023346	-0.019684	0.221104	-0.004120	
-0.071870	-0.034333	0.066987	-0.014496	
-0.065766	-0.043794	0.052949	-0.017548	
-0.041352	-0.041963	-0.074311	-0.019989	
-0.015717	-0.028229	0.005341	-0.013580	
0.040437	-0.001678	0.291295	-0.000763	
0.043794	0.037080	0.042878	0.012665	
-0.001678	0.069123	-0.410621	-0.002899	
-0.026398	0.070039	-0.482033	-0.009918	
-0.057221	0.045320	-0.002899	-0.009918	
-0.078584	0.045930	0.180209	0.010223	
-0.068208	0.037385	0.051423	0.008392	
-0.019073	0.079194	0.139315	0.000763	
-0.009613	0.085603	0.031587	-0.012054	
-0.024872	0.048371	-0.157931	-0.014496	
-0.047456	-0.020905	-0.108797	-0.012054	
-0.045320	-0.110323	-0.077973	0.001678	
-0.055085	-0.128023	-0.117037	-0.023346	
-0.039216	-0.104219	0.287328	-0.017853	
-0.023956	-0.126497	-0.207065	-0.003510	
-0.005951	-0.094149	-0.239719	-0.007477	
0.013275	-0.027313	0.315404	-0.007782	
0.014191	0.032807	0.270847	-0.005951	
0.027008	0.064240	-0.320897	-0.009308	
0.019684	0.093537	-0.130770	-0.017853	
0.027313	0.130465	0.184482	-0.005035	
0.024261	0.142672	0.196994	0.004120	
0.014496	0.161288	0.168002	0.008698	
0.013275	0.114290	0.105135	-0.001984	
0.019073	0.020599	0.139925	-0.005646	
0.020294	-0.068208	0.247654	-0.012970	
0.005035	-0.100863	0.117342	-0.002289	
-0.001984	-0.092622	-0.008392	-0.005341	
-0.021210	-0.065156	-0.052949	0.002289	
-0.090486	-0.022430	0.051728	-0.009003	
-0.044099	0.008698	0.092622	-0.012970	
0.016937	0.009003	0.128633	-0.010223	
0.036469	-0.001984	-0.121309	-0.012970	
0.048676	-0.026398	-0.571145	-0.002289	
0.031281	-0.078584	-0.188144	-0.004425	
0.059968	-0.074311	0.288854	-0.000153	
0.046235	-0.045930	-0.164035	-0.009308	
0.022125	-0.005951	-0.394445	-0.000763	
0.042878	0.024872	-0.120699	-0.003510	
0.001068	0.033418	0.527504	0.005341	
-0.045320	0.011749	0.151522	-0.001678	
-0.057221	0.048371	-0.255589	0.000763	
-0.054170	0.047151	0.089265	-0.011749	
-0.016937	-0.001678	-0.105440	-0.005646	
-0.013275	-0.026398	-0.320592	-0.005951	
-0.037690	-0.017242	-0.205234	-0.005035	
-0.097811	-0.018463	-0.133211	0.000153	
-0.108187	0.004730	-0.596476	0.003815	
-0.083161	0.020599	-0.776531	-0.013580	
-0.107271	0.043183	0.280003	-0.010529	
-0.016022	0.068818	0.774700	-0.002899	
0.070039	0.095064	0.831159	0.005035	
0.118563	0.067597	1.038987	0.006256	
0.210422	0.018158	0.123751	-0.003204	
0.087129	-0.032197	0.019989	0.002289	
-0.162204	-0.053254	-0.003815	-0.015106	
-0.025482	0.060578	-0.122530	-0.012360	
0.088655	0.175021	0.102083	-0.010529	
0.089875	0.192721	-0.008392	-0.012054	
-0.003815	0.085298	-0.153963	-0.012360	
-0.052339	-0.131990	-0.117342	-0.009308	
-0.079499	-0.271152	0.256504	-0.018463	
-0.092011	-0.288548	0.050813	-0.022430	
-0.087129	-0.231174	-0.249485	-0.014496	
-0.077363	-0.147554	-0.523842	0.003815	
-0.040132	0.002899	0.105135	0.017548	
0.013885	0.117342	0.230869	0.002899	
0.081025	0.150606	-0.038301	-0.003510	
0.075837	0.112764	-0.354773	-0.023346	
0.040742	0.062104	-0.145113	-0.022430	
0.000763	0.056001	0.472878	-0.019073	
0.014191	0.078279	0.515297	0.002594	
0.018158	0.032502	0.073091	-0.009918	
0.034028	0.024872	-0.785687	-0.010529	
0.044099	0.012970	-0.754864	-0.015106	
0.045930	-0.013580	0.053254	-0.006866	
0.031281	-0.009003	0.336156	0.001678	
0.029144	0.010834	0.212253	0.004425	
0.000763	0.032197	0.070039	0.006866	
-0.035554	0.024567	-0.058137	0.005951	
-0.054170	0.033113	0.174411	0.007172	
-0.052339	0.049897	0.165866	-0.008087	
-0.051728	0.034638	0.352636	-0.005951	
-0.112459	0.030670	0.054780	-0.001373	
-0.135347	-0.005341	0.006866	-0.017548	
-0.067292	-0.057527	-0.099337	-0.021820	
-0.015411	-0.058137	-0.207675	0.001068	
-0.071565	-0.086518	0.153658	-0.004120	
-0.059663	-0.067292	-0.036775	-0.014191	
0.004730	-0.033723	0.111238	-0.009308	
0.057832	0.016327	0.140230	-0.000763	
0.082856	0.039826	-0.092622	-0.004425	
0.088349	-0.024261	0.073701	-0.003204	
0.074006	-0.110933	-0.009613	-0.005951	
0.057221	-0.106356	-0.080110	-0.008087	
0.038301	-0.063325	-0.097200	-0.007172	
0.026703	-0.015717	-0.121004	0.002594	
0.019073	0.016632	-0.207370	-0.005646	
0.001678	0.044709	0.014496	-0.009918	
-0.017242	0.056916	0.275120	-0.002289	
-0.032502	0.046235	0.070954	0.002289	
-0.026093	0.022430	-0.328221	0.014801	
-0.004425	0.026093	-0.080720	0.002899	
0.016327	0.048371	-0.064240	-0.007477	
0.022125	0.088960	0.019989	-0.012054	
0.042573	0.102388	0.172580	-0.009308	
0.042573	0.030975	0.018158	-0.018463	
0.054475	0.005646	-0.121004	-0.017853	
0.088349	-0.030975	-0.147554	-0.021820	
0.094149	0.008698	-0.272678	-0.012054	
0.001068	0.069123	-0.302892	-0.007477	
-0.082246	0.105440	0.346228	0.021210	
-0.149385	0.087739	-0.106356	0.019989	
-0.189670	0.029755	-0.977341	0.008087	
-0.207675	-0.097811	0.415504	-0.005951	
-0.167392	-0.231174	0.926681	-0.014496	
-0.085908	-0.227512	0.295873	-0.028839	
-0.025482	-0.171054	0.200351	-0.015106	
0.012970	-0.094759	0.106356	-0.014496	
0.060578	-0.043794	0.353857	-0.014191	
0.072175	0.080110	0.198215	-0.013275	
0.030670	0.163119	0.137484	-0.012054	
0.027008	0.144503	0.027924	-0.003204	
0.020905	0.105135	-0.060273	-0.020294	
0.012360	0.076753	0.174106	-0.005951	
-0.021210	0.063325	-0.156711	-0.000153	
-0.037995	0.040437	-0.615702	0.005951	
-0.075837	-0.002899	-0.376135	0.004120	
-0.024261	-0.014191	-0.365759	0.004425	
0.046540	-0.030365	-0.229954	-0.008392	
-0.019684	-0.061189	0.186923	-0.004120	
-0.003204	-0.098726	0.645609	0.005951	
0.022125	-0.097811	0.350805	-0.004425	
0.037995	-0.063325	0.071565	-0.015411	
0.039216	-0.014191	0.277256	0.000153	
0.004730	0.031892	0.007172	-0.005646	
0.024261	0.072480	-0.159762	-0.029755	
0.122225	0.056611	0.049287	-0.011444	
0.154879	-0.025482	0.344702	-0.002899	
0.234226	-0.012970	-0.076142	-0.000763	
0.164645	0.024567	-0.129549	-0.002899	
-0.089570	0.094454	-0.124056	-0.005951	
-0.238499	0.120699	-0.292821	-0.006256	
-0.219578	0.060578	-0.270542	0.005341	
-0.170138	0.017242	-0.656596	-0.008392	
-0.122530	0.003815	-0.894636	-0.010529	
-0.076447	-0.015106	0.271152	-0.019379	
-0.126497	-0.025787	0.714885	-0.016327	
-0.173190	0.002594	0.106966	-0.010529	
-0.029449	0.008698	-0.608377	-0.002289	
0.065156	0.002594	0.398718	0.017548	
0.117037	0.006256	0.941939	0.012054	
0.128939	0.020294	0.425574	-0.005951	
0.112764	0.030365	0.084687	0.002899	
0.082551	0.047456	-0.066072	0.001678	
0.053864	0.045320	0.067597	-0.014191	
0.043794	0.050508	0.050813	-0.014496	
0.017242	0.014191	-0.147554	-0.009613	
0.005646	-0.022125	-0.038301	-0.007172	
0.003815	-0.061189	-0.006866	-0.014191	
-0.001678	-0.060273	-0.031892	-0.003815	
-0.004425	-0.043489	-0.126802	-0.013275	
0.011749	-0.031892	-0.168612	-0.015411	
0.003204	-0.041963	-0.181430	-0.018463	
-0.005951	-0.034028	-0.149691	-0.008392	
-0.015411	-0.034944	0.007782	-0.016632	
-0.024261	-0.012360	0.030670	-0.015106	
-0.027618	0.027008	-0.320897	-0.007477	
-0.007172	0.026093	-0.171359	-0.007172	
0.013275	0.035249	0.340428	0.001678	
-0.001678	0.066682	0.441138	-0.005951	
-0.012360	0.108187	0.080720	0.002899	
0.007172	0.106661	-0.068513	-0.016632	
0.014801	0.076142	0.034638	-0.000763	
-0.030365	-0.081635	0.104830	-0.000763	
-0.055085	-0.193332	0.245823	-0.012360	
-0.055085	-0.230259	0.194247	-0.009918	
-0.037080	-0.205234	-0.037385	0.000763	
-0.029755	-0.139620	-0.242466	-0.002289	
-0.037690	-0.017853	-0.576943	-0.003204	
-0.036469	0.048371	-0.580911	-0.005035	
-0.032502	0.037080	-0.044709	0.002289	
-0.021210	0.018768	0.259861	0.001984	
0.022125	0.021820	0.037080	0.003204	
0.052033	0.033113	0.224766	0.001984	
0.052033	0.053254	-0.095980	-0.002899	
0.056611	0.082246	0.034638	-0.003510	
0.036775	0.096285	-0.190890	-0.013275	
0.027008	0.115206	-0.363928	-0.003204	
-0.031892	0.140535	0.710002	-0.000153	
-0.086518	0.214389	0.775005	0.014496	
-0.051728	0.158847	0.415198	-0.010529	
-0.016937	-0.029755	-0.010223	-0.015106	
-0.033418	-0.135653	-0.365454	-0.016632	
-0.102388	-0.165866	-0.273289	-0.002899	
-0.104219	-0.150911	0.127108	0.000153	
0.027924	-0.082246	0.291905	-0.014191	
0.046540	-0.009308	0.245518	-0.007172	
0.047151	0.033113	0.159457	0.001068	
0.034333	0.041963	-0.237583	0.002594	
0.018463	0.011139	-0.268406	-0.008392	
0.005951	-0.023651	-0.065461	-0.017853	
0.005646	-0.033723	-0.091706	-0.016632	
0.015717	-0.032197	-0.095064	-0.009003	
0.006256	-0.017853	-0.047761	-0.012970	
0.011749	0.016327	0.164035	-0.005646	
0.014801	0.034333	0.139925	-0.006866	
0.000458	0.052644	-0.039826	-0.015717	
-0.014191	0.055085	-0.382849	-0.023651	
-0.015106	0.040742	-0.547952	-0.001984	
-0.012360	0.033113	-0.107271	0.005341	
0.016327	0.000458	0.344091	-0.003204	
0.024872	-0.037385	0.151522	-0.011749	
0.007782	-0.028534	0.140535	-0.006256	
0.000458	0.000763	0.180209	-0.010223	
0.011749	0.017242	0.113680	-0.007782	
-0.003815	0.010834	-0.074006	-0.001984	
-0.024872	0.010223	-0.222019	0.001678	
-0.020294	0.045014	0.235447	0.008698	
-0.024872	0.067597	0.240635	0.005035	
-0.006256	0.080110	0.044404	0.003815	
0.028229	0.058442	-0.018463	-0.009613	
0.181125	-0.002289	0.021515	-0.013885	
0.434424	-0.096285	-0.009003	-0.019684	
0.643778	-0.085603	0.023956	-0.007172	
0.202182	-0.026093	-0.406042	-0.013580	
-0.298009	0.085603	-0.667277	0.006561	
-0.505531	0.095675	-0.494545	0.003815	
-0.538796	0.050813	0.407569	-0.005035	
-0.486305	-0.047151	0.622416	-0.005646	
-0.363012	-0.092622	0.189670	-0.003815	
-0.244297	-0.092622	0.269627	-0.012054	
-0.173190	-0.099947	0.206149	-0.016022	
-0.098421	-0.093537	0.117952	-0.012970	
-0.045625	-0.061799	0.114290	-0.008392	
-0.019989	-0.033723	0.164645	-0.007172	
0.014191	-0.025787	-0.174106	-0.007782	
0.074616	-0.048371	-0.438392	-0.013580	
0.134432	-0.040132	-0.439002	-0.011749	
0.172275	0.035859	0.002899	0.010834	
0.177463	0.094454	0.570535	0.008087	
0.169528	0.102694	0.069123	0.004120	
0.120089	0.070954	0.060884	-0.019073	
0.064546	0.044709	0.209506	-0.011139	
-0.000153	0.018768	0.037385	-0.009308	
0.053864	0.029144	-0.032197	0.000153	
0.098421	0.028839	-0.034638	0.005035	
0.078584	0.052033	-0.294042	0.008087	
0.063325	0.034638	-0.290074	-0.008392	
0.060884	0.012360	0.457313	-0.013275	
0.038606	0.003815	0.317540	-0.011139	
0.040742	-0.008392	-0.205844	-0.008087	
0.009003	-0.023041	-0.353857	-0.003815	
-0.052033	-0.019379	-0.261692	0.002899	
-0.051423	0.007172	0.322118	0.015106	
-0.032197	0.012054	0.360876	-0.005341	
-0.046235	0.072480	-0.272678	-0.009308	
-0.032197	0.121309	-0.098726	-0.007477	
0.005035	0.161899	0.111238	-0.002899	
-0.002289	0.128939	-0.013885	-0.015717	
0.016937	0.018768	-0.057832	-0.013885	
0.032502	-0.083467	-0.435645	-0.013275	
0.045014	-0.126192	-0.796674	-0.013275	
0.050813	-0.129549	-0.530556	-0.018158	
0.040132	-0.123446	0.077363	0.001678	
0.010834	-0.096285	0.432593	0.003815	
-0.037080	-0.058137	0.798505	-0.002899	
-0.075837	-0.037385	0.600748	0.004425	
-0.095980	-0.026398	0.568398	-0.010223	
-0.149385	-0.027313	0.316014	-0.017242	
-0.176242	0.016022	0.027924	-0.008392	
0.013885	0.088655	0.084687	0.002289	
0.081025	0.109407	-0.089265	-0.005035	
0.075227	0.080110	0.030060	-0.000153	
0.028534	0.011749	-0.238194	-0.001373	
0.014801	-0.045625	-0.328221	0.005341	
-0.007782	-0.062715	-0.102999	-0.008087	
-0.009003	-0.031281	-0.143892	-0.001984	
-0.005341	-0.040437	-0.052339	-0.012970	
0.006256	-0.018158	-0.126802	-0.008087	
-0.005341	0.001984	0.036775	-0.011444	
-0.005646	0.027313	0.071565	-0.009918	
-0.007477	0.054170	-0.034028	-0.011139	
-0.013580	0.076753	0.000763	-0.006866	
-0.028229	0.077668	-0.012970	-0.005951	
-0.039521	0.053254	-0.005341	-0.008392	
-0.037080	0.007172	-0.004425	-0.008087	
-0.008392	-0.021210	-0.000153	-0.012054	
0.019684	-0.007172	-0.003510	-0.009613	
0.026703	0.019379	-0.033418	-0.011139	
0.027924	0.066377	-0.169528	0.002289	
-0.021210	0.044404	-0.154879	-0.007172	
-0.105135	-0.053254	0.175021	0.008087	
-0.143282	-0.096895	0.085908	0.004120	
0.013275	-0.014191	0.073701	-0.002899	
0.098421	0.012054	0.113985	-0.005035	
0.089875	-0.031587	0.009003	0.005951	
0.052644	-0.115511	-0.082246	-0.002899	
0.012970	-0.116732	-0.124056	-0.001678	
-0.010834	-0.059052	0.099947	-0.011749	
-0.025177	-0.014191	0.147249	-0.017242	
-0.028229	0.002594	0.042878	-0.005951	
-0.015106	0.007782	-0.027008	-0.007782	
0.041352	0.040437	0.036775	-0.004425	
0.044099	0.063325	0.114901	-0.008087	
0.046540	0.074922	0.060273	-0.004425	
0.098116	0.041963	-0.031281	-0.011139	
0.245823	0.008087	-0.175021	-0.005951	
0.197604	0.000763	-0.263828	-0.010223	
0.051728	0.109102	0.129244	-0.000153	
-0.099642	0.188754	0.323644	-0.013580	
-0.212253	0.200046	-0.363928	-0.016327	
