NO_OF_SAMPLES	4800
TOT_NO_OF_CHAN	4
FREQUENCY	960.000000
NO_OF_CALC_CHAN	0
TIME_STAMP	2020-02-08, 11:26:38	226676.59644540
FIRST_SAMPLE	1
DESCRIPTION	--
DATA_INCLUDED	Analog
CHANNEL_NAMES	Vastus Lateralis	Vastus Medialis	Tibialis Anterior	Lateral Gastroc
CHANNEL_GAIN	1	1	1	1
FP_LOCATION
FP_CAL
FP_GAIN
Vastus Lateralis	Vastus Medialis	Tibialis Anterior	Lateral Gastroc	
-0.007172	0.004425	-0.019684	0.126497	
-0.003510	0.001678	-0.034638	0.010223	
-0.001068	0.004425	0.003815	-0.137789	
-0.003815	0.005646	0.010529	-0.274815	
-0.008087	0.000153	0.016327	-0.294042	
0.001984	0.010223	0.026703	-0.233616	
0.000458	0.004730	0.032197	-0.113375	
0.008087	0.007782	0.036164	-0.114901	
0.006866	0.006561	0.015411	-0.095064	
0.006561	0.006256	0.008087	0.328526	
0.004730	0.002594	0.000458	0.321813	
0.009003	0.008087	0.003815	0.153353	
-0.000153	0.005035	-0.006866	0.100252	
0.000458	0.010223	-0.011139	0.049592	
-0.001984	0.005951	-0.013885	0.015106	
0.000153	0.011139	-0.007477	-0.016022	
-0.001068	0.006866	-0.003204	-0.040742	
-0.005341	0.002289	-0.005341	-0.056306	
-0.013275	0.003204	0.004120	-0.068208	
-0.017548	0.004425	0.009003	-0.076753	
-0.025482	-0.000763	0.004120	-0.075532	
-0.026398	-0.007172	0.005035	-0.075227	
-0.023041	-0.003815	0.008087	-0.070649	
-0.027618	-0.005951	0.002594	-0.066682	
-0.017853	-0.007477	0.007782	-0.060578	
-0.017242	-0.009613	0.005341	-0.056001	
-0.010223	0.003815	0.012665	-0.048066	
-0.013885	-0.000763	0.007172	-0.042268	
-0.007782	0.005035	0.008698	-0.034028	
-0.006256	0.001984	0.007782	-0.033418	
0.003204	0.003815	0.010529	-0.021515	
0.002289	-0.001373	0.010529	-0.019989	
0.009918	0.007172	0.014801	-0.012054	
0.004730	0.007782	0.010834	-0.011444	
0.005035	0.010223	0.012665	-0.002899	
0.003204	0.005035	0.012360	0.004120	
-0.001373	0.004120	0.005341	-0.003510	
0.003204	0.002289	0.005951	-0.000763	
0.002594	0.001678	0.009003	0.006256	
0.005646	0.009308	0.016022	0.013885	
-0.004425	-0.000763	0.008087	0.006866	
0.000458	0.005951	0.014801	0.012665	
0.000763	0.003204	0.008698	0.011139	
0.002289	0.004120	0.004730	0.019989	
-0.004120	0.003204	-0.001678	0.036775	
0.002289	0.008698	-0.005035	0.063935	
-0.007477	-0.001984	-0.018158	0.068208	
-0.003815	-0.002289	-0.017548	0.008087	
-0.005951	-0.005951	-0.000153	-0.060578	
-0.000763	0.001678	0.025177	-0.109713	
-0.005646	-0.006866	0.012054	0.073091	
-0.006866	0.004730	-0.000763	0.261692	
-0.011749	0.000153	-0.033418	-0.031892	
-0.012360	-0.001984	-0.009613	-0.306554	
-0.009613	0.002289	0.070039	-0.209811	
-0.010834	-0.001984	0.090180	-0.088960	
-0.006866	0.000763	0.076753	0.055696	
-0.013275	-0.001373	0.042878	0.064240	
-0.005951	0.005646	0.034028	0.092622	
-0.004120	0.004120	0.013885	0.033723	
0.000763	0.003815	0.008698	-0.003204	
-0.000153	0.003815	0.006256	0.041047	
-0.001373	0.006561	0.004730	0.071870	
-0.001678	0.005646	0.003204	0.055085	
0.001068	0.012054	0.000153	0.019073	
-0.003815	0.004425	-0.005035	0.008698	
0.001068	0.007172	0.002594	0.015106	
-0.012054	0.002899	-0.001373	-0.003815	
-0.004425	0.006256	0.009003	-0.002899	
-0.005341	0.003815	0.018768	-0.011139	
-0.006866	0.003815	0.028839	-0.017853	
-0.008087	0.006256	0.019989	-0.009308	
-0.003815	0.006256	-0.034638	-0.006256	
-0.010223	0.000458	-0.063020	-0.014191	
-0.014801	-0.005035	-0.090791	-0.019379	
-0.009003	0.004120	-0.118563	-0.020599	
-0.011139	-0.003510	-0.085908	-0.020294	
-0.005035	0.003815	0.034944	-0.007477	
-0.008392	-0.006256	0.086823	-0.017853	
-0.005951	-0.001984	0.151827	-0.009918	
-0.014801	-0.001678	0.083161	-0.016327	
-0.015106	-0.007782	0.034333	-0.024567	
-0.013580	-0.009308	0.034638	-0.021210	
-0.005341	0.001068	0.007782	-0.014191	
-0.006866	0.002289	-0.004425	-0.017853	
-0.006256	0.004425	-0.034028	-0.017242	
-0.001373	0.008087	-0.046540	-0.008392	
-0.002899	0.009308	0.036469	-0.005035	
-0.003815	0.007782	0.124361	-0.011444	
-0.005646	0.006561	0.070954	-0.013580	
-0.001068	0.013275	0.071565	-0.009918	
-0.001678	0.006866	0.058747	-0.011139	
0.005035	0.013275	0.012665	-0.005646	
0.000458	0.010834	-0.054780	-0.009003	
0.005646	0.012054	-0.120699	0.001068	
-0.001678	0.000458	-0.130465	0.001068	
0.006256	0.010223	-0.004120	0.008392	
0.006561	0.005951	0.143892	-0.001678	
0.009918	0.010529	0.071259	0.002289	
0.002594	0.003815	-0.019073	-0.001678	
0.003204	0.006561	-0.084687	0.006256	
0.002289	0.004120	-0.113985	0.005341	
0.001068	-0.000153	-0.092317	0.000153	
0.000763	-0.000763	-0.136263	-0.013580	
-0.000763	-0.001068	-0.197909	-0.019989	
-0.001984	0.000458	-0.035554	-0.010529	
-0.005035	-0.000153	0.127413	-0.002899	
-0.003204	0.002289	0.040132	-0.000763	
-0.005341	-0.001984	0.111544	-0.007477	
-0.000153	0.006256	0.197299	-0.003204	
-0.008087	-0.002899	-0.016022	-0.015717	
-0.001678	0.002289	0.128023	-0.008087	
-0.005646	-0.002289	0.072480	-0.008392	
-0.000153	0.005035	-0.011444	-0.003510	
-0.002289	0.002289	0.015411	-0.013580	
-0.001373	0.004120	0.040742	-0.007782	
-0.009003	0.000763	0.099642	-0.014496	
-0.007477	0.004120	0.088960	-0.013580	
-0.007782	0.001984	0.032502	-0.006256	
-0.010223	0.003204	0.022430	-0.009003	
-0.007782	0.001984	0.013885	-0.011139	
-0.009003	0.000763	0.006256	-0.005035	
-0.005951	0.003204	0.011139	-0.006256	
-0.011749	-0.001984	-0.001373	-0.007782	
-0.005646	0.004425	-0.005951	-0.001984	
-0.010834	-0.001678	-0.026093	-0.008392	
-0.007477	0.006561	-0.023651	-0.000763	
-0.003510	0.004425	-0.025177	-0.006256	
0.002594	0.008698	-0.024261	-0.003510	
-0.003204	0.010834	-0.023346	0.005035	
0.001068	0.011749	-0.050202	0.006256	
0.000458	0.007172	-0.076447	0.005951	
0.002899	0.012360	0.014496	0.008698	
0.004120	0.005951	0.018463	0.005035	
0.006561	0.010834	-0.030365	0.012360	
0.001678	0.008087	-0.041963	0.005951	
0.001984	0.009308	0.081635	0.005341	
-0.002289	0.007782	0.071259	0.005035	
-0.009613	0.005646	-0.042268	0.004120	
-0.013580	0.008698	-0.019989	0.008392	
-0.015411	0.001984	0.024567	0.004120	
-0.009003	0.000153	0.146029	0.010834	
-0.019684	-0.001678	0.105745	0.007172	
-0.012360	0.008392	0.027008	0.012360	
-0.018463	0.004120	-0.013885	0.002594	
-0.015411	0.004425	-0.036469	0.001678	
-0.023041	-0.009308	-0.078584	-0.013275	
-0.016937	-0.005341	-0.087129	-0.007172	
-0.018158	-0.005341	-0.066072	-0.009918	
-0.015106	-0.008087	-0.019379	-0.009308	
-0.014801	-0.015411	0.014801	-0.005951	
-0.007477	-0.012970	0.042878	-0.004120	
-0.010834	-0.018158	0.078889	-0.007782	
-0.006256	-0.014191	0.109102	-0.009308	
-0.003510	-0.007782	0.126497	-0.005341	
0.000458	0.000458	0.046845	-0.003510	
0.001068	0.000153	-0.017242	-0.009003	
0.002289	0.001984	0.007782	-0.006256	
-0.000153	0.002289	0.000458	-0.010223	
0.003204	0.004425	-0.036469	-0.014496	
0.007172	0.009308	-0.053559	-0.008392	
0.000458	0.010223	-0.065461	-0.012970	
0.007172	0.016327	-0.069123	-0.009918	
0.005646	0.015106	-0.072785	-0.009003	
0.008087	0.015106	-0.102999	-0.005035	
-0.001984	0.010223	-0.062104	-0.011444	
-0.000153	0.016327	0.177768	-0.006256	
-0.001068	0.010529	0.118258	-0.002899	
-0.000153	0.012054	-0.004120	-0.001068	
0.002594	0.008698	0.034333	-0.005035	
-0.000763	0.006256	0.034028	-0.000763	
-0.001068	0.009308	0.051423	-0.005646	
0.002289	0.010529	-0.005646	-0.005646	
0.003815	0.006256	0.007782	-0.002899	
0.000153	0.006256	0.171054	-0.005035	
0.005035	0.006561	0.060578	0.000153	
-0.001678	0.002289	-0.010223	-0.005341	
-0.003815	0.005951	0.004425	-0.001984	
-0.008087	0.001984	-0.024567	-0.001373	
-0.009308	-0.000153	-0.039826	-0.003204	
-0.013275	-0.002899	-0.095369	0.000763	
-0.009003	0.004425	-0.080110	0.001678	
-0.009003	0.001678	0.060578	-0.001678	
-0.003815	0.003204	0.155794	0.002594	
-0.003815	0.007172	0.091096	0.001068	
-0.000153	0.009308	0.068818	0.004120	
-0.007172	0.006561	-0.107882	0.002899	
-0.004120	0.010834	-0.186923	0.004120	
-0.002289	0.007172	-0.170749	0.001678	
0.001068	0.005951	-0.112459	0.000763	
-0.002289	0.008698	0.161593	0.000153	
-0.009613	0.003815	0.311131	-0.010529	
-0.005646	0.006561	0.151522	-0.009918	
-0.006866	0.004120	0.121920	-0.009918	
0.003204	0.012360	0.062409	-0.004425	
-0.007172	0.004730	0.038911	-0.008392	
-0.005341	0.010223	0.046235	-0.002289	
-0.010834	0.004425	-0.018158	-0.009308	
-0.007477	0.007172	-0.050508	-0.009613	
-0.006866	0.001984	-0.064851	-0.015106	
-0.003204	0.008698	-0.083161	-0.010223	
-0.008392	-0.000763	-0.039521	-0.013580	
-0.007477	-0.002899	0.012665	-0.013580	
-0.007477	-0.003815	0.027924	-0.014191	
-0.003815	0.002289	-0.029144	-0.011444	
-0.002899	0.003815	0.081941	-0.012054	
-0.013885	-0.004120	0.084992	-0.019073	
-0.008087	0.002899	-0.007172	-0.013580	
-0.008087	-0.000153	-0.035554	-0.017548	
-0.006866	0.006256	-0.014191	-0.007477	
-0.005341	0.003204	-0.044404	-0.010223	
-0.004120	0.002289	-0.088044	-0.005646	
-0.014191	-0.005341	0.020599	-0.012054	
-0.001068	0.009918	-0.056001	-0.008087	
-0.006256	-0.005035	-0.118563	-0.017853	
-0.001068	-0.001068	-0.092317	-0.014191	
-0.008087	-0.003510	-0.068818	-0.019073	
-0.005341	0.004425	0.034028	-0.012360	
-0.011139	-0.001373	0.229649	-0.015106	
-0.006866	-0.002289	0.208896	-0.009613	
-0.005341	0.002594	0.038911	-0.014496	
-0.003510	0.000153	0.027313	-0.012970	
-0.006256	-0.002899	0.011749	-0.011749	
-0.008087	-0.000153	-0.030365	-0.015411	
-0.002289	0.004120	-0.036469	-0.009003	
-0.003204	0.001984	-0.030365	-0.012054	
0.000763	0.009308	-0.030365	-0.011749	
-0.005951	-0.000153	-0.021820	-0.016022	
-0.002289	-0.002289	0.005341	-0.016327	
-0.005341	-0.006256	0.017242	-0.015717	
0.000153	0.002899	0.052339	-0.012360	
-0.000153	-0.004120	0.039216	-0.016022	
0.004730	-0.001984	-0.029144	-0.009308	
-0.002289	-0.004120	-0.016937	-0.016632	
0.005951	0.003204	0.068818	-0.006256	
-0.001678	-0.001373	-0.108797	-0.007172	
-0.003510	0.004425	-0.132601	-0.008392	
-0.004425	0.002899	-0.100252	-0.010223	
-0.008087	0.000458	-0.066987	-0.005341	
-0.006256	0.007782	-0.106966	-0.003510	
-0.003204	0.011749	0.059663	-0.001678	
-0.005951	0.009918	0.260471	-0.000763	
-0.009308	0.004425	0.160983	-0.003510	
-0.011749	0.007172	0.111544	-0.001984	
-0.008392	0.005951	-0.004120	-0.001678	
-0.009613	0.009003	-0.087129	-0.002899	
-0.013885	0.005951	-0.142366	-0.006256	
-0.004425	0.009308	-0.026398	0.004425	
-0.005951	0.004120	-0.049287	0.006866	
-0.002899	0.012054	-0.047761	0.004425	
-0.001068	0.010529	0.189059	-0.000763	
-0.000763	0.007172	0.320287	-0.005646	
-0.003815	0.001984	0.233311	-0.012054	
0.000763	0.001678	0.139315	-0.004425	
0.001984	-0.002899	0.028839	0.000763	
0.005646	-0.003510	0.000458	0.004425	
0.005646	-0.001373	-0.095980	0.001068	
0.000458	0.000763	-0.118563	-0.006866	
0.002594	0.008698	-0.064546	-0.000763	
-0.006256	0.006561	-0.074311	-0.005646	
-0.004425	0.004425	-0.035554	-0.006256	
-0.009613	0.002899	0.008087	-0.010223	
-0.002289	0.013275	0.189975	-0.005646	
-0.010834	-0.002289	0.162814	-0.017853	
-0.006256	0.003815	0.071259	-0.007782	
-0.009003	0.002289	-0.005646	-0.007172	
-0.007172	0.004425	-0.096590	-0.005646	
-0.012054	-0.000153	-0.110323	-0.011444	
-0.001678	0.000458	-0.124666	-0.004425	
-0.003815	-0.002289	-0.106966	-0.007172	
-0.003510	-0.002899	-0.027008	-0.009918	
-0.002289	-0.007477	-0.065766	-0.013885	
-0.005646	-0.005646	-0.161288	-0.015717	
-0.001678	0.000153	-0.243687	-0.012970	
-0.005951	-0.007172	-0.044404	-0.009918	
0.001984	-0.001373	0.059663	-0.004425	
-0.003204	-0.002289	0.125582	-0.014191	
-0.001373	0.005035	0.268711	-0.009308	
-0.012360	-0.001373	-0.030365	-0.020294	
-0.000153	0.007172	-0.052644	-0.007172	
-0.002289	0.007782	0.080110	-0.003510	
-0.003815	0.008698	-0.045930	-0.007782	
-0.013885	0.003815	-0.017853	-0.016632	
-0.006866	0.001678	0.081941	-0.007477	
-0.009613	0.000763	0.144503	-0.007172	
-0.009613	0.002289	0.079804	-0.007477	
-0.011139	-0.005646	0.050508	-0.013580	
-0.005951	0.000458	0.058747	-0.011139	
-0.005341	0.006561	0.028534	-0.013580	
-0.011139	0.001068	0.011139	-0.013275	
-0.002289	0.006561	-0.002899	-0.000763	
-0.008087	0.003815	-0.007172	-0.007782	
-0.003815	0.006561	0.035554	-0.004120	
-0.007477	0.005035	0.040132	-0.003510	
-0.005341	0.003815	0.008698	-0.007172	
-0.002289	0.001678	-0.040742	-0.013580	
0.000763	0.003204	-0.050202	-0.006256	
-0.009003	-0.001984	-0.077973	-0.011139	
-0.005646	0.002289	-0.132906	-0.005646	
-0.009003	-0.001373	-0.202182	-0.005646	
-0.005951	0.002594	-0.054170	0.002594	
-0.009003	0.000458	-0.015411	-0.003204	
-0.003815	0.002289	-0.137789	-0.001984	
-0.005951	0.006866	-0.034333	-0.002289	
-0.003815	0.008698	0.166476	-0.008392	
-0.003510	0.007172	0.414588	-0.005951	
-0.001068	0.011139	0.380407	-0.000153	
-0.005035	0.008698	0.113375	0.000763	
-0.006866	0.005646	0.066682	-0.000153	
0.000153	0.007172	0.049592	0.000458	
-0.004425	0.002899	0.027008	-0.001373	
-0.002899	0.008698	0.028229	0.000153	
-0.005951	0.002594	-0.014191	-0.007172	
-0.004120	0.006256	-0.051728	-0.005951	
-0.005646	0.004730	-0.043183	-0.009308	
0.001068	0.003815	-0.025482	0.002289	
-0.002289	0.000153	-0.040437	-0.003510	
-0.005646	-0.001984	-0.106356	-0.011444	
-0.002289	-0.002289	-0.081025	-0.007782	
-0.009003	0.000153	0.095980	-0.009308	
-0.006256	-0.001984	0.125887	-0.005341	
-0.003204	0.005951	0.010529	-0.000153	
-0.004425	0.001068	-0.159152	-0.005341	
-0.002289	0.002289	-0.154879	-0.001373	
-0.005951	0.006561	-0.048371	-0.002899	
-0.006256	0.000763	-0.017853	-0.005035	
-0.010223	0.000763	0.047456	-0.002899	
-0.007782	-0.003510	0.053559	-0.005035	
0.000153	0.001678	0.057527	0.000153	
-0.009308	-0.003815	-0.003815	-0.003510	
-0.004425	0.002289	-0.032197	-0.002899	
-0.010834	-0.006256	-0.037995	-0.005646	
-0.001068	0.004730	-0.023956	0.000763	
-0.003204	0.001068	-0.021820	-0.000763	
-0.001984	0.001678	-0.012970	0.000153	
-0.009613	-0.004120	-0.012054	-0.003815	
-0.007477	0.004425	0.003815	0.001068	
-0.009613	0.002289	-0.001373	-0.007782	
-0.000763	0.003204	-0.032197	-0.003510	
-0.004425	0.002289	-0.049287	-0.007172	
-0.008392	0.002594	-0.049897	-0.010529	
-0.003815	0.004425	-0.026093	-0.004120	
-0.004425	0.005646	0.006256	-0.002289	
-0.005951	0.006256	0.101778	-0.003204	
-0.009308	-0.001373	0.125887	-0.009918	
-0.000153	0.005951	0.043183	-0.000763	
-0.004425	-0.001678	0.018768	-0.005646	
0.000763	0.006561	0.026093	-0.006256	
-0.000763	0.001984	0.006561	-0.008392	
0.002899	0.005951	0.033418	0.001678	
-0.005341	-0.001678	0.085908	-0.009613	
-0.003815	0.001068	0.041657	-0.003510	
-0.005341	0.005035	0.005951	-0.001984	
-0.004120	0.004730	0.050202	-0.006256	
-0.001984	0.003204	0.026703	-0.006256	
0.000763	0.008392	0.021210	-0.000763	
-0.003510	0.010223	-0.010834	-0.003510	
-0.009003	0.003815	-0.078279	-0.002899	
-0.003204	0.003204	-0.066377	-0.001984	
-0.003815	0.001678	0.140535	-0.003510	
-0.005341	0.008087	0.061799	-0.001373	
-0.013275	-0.001373	0.017853	-0.005341	
-0.007782	0.004730	0.012665	-0.000763	
-0.011444	0.003815	-0.026398	-0.007172	
-0.005951	0.006256	-0.011444	-0.003510	
-0.015411	0.003815	-0.008392	-0.007477	
-0.009308	0.005035	0.029144	-0.003510	
-0.009918	-0.003815	0.039216	-0.003510	
-0.006866	0.002899	-0.011749	-0.000763	
-0.015411	-0.002899	0.042268	-0.012970	
-0.010834	0.003204	0.024872	-0.004425	
-0.007477	0.000153	-0.061799	-0.001984	
-0.005646	-0.000763	-0.019684	0.002289	
-0.005341	0.002594	-0.009003	-0.003510	
-0.005646	-0.002899	-0.016022	-0.005951	
-0.005646	-0.001373	-0.009003	-0.005951	
-0.008087	-0.002289	0.005341	-0.011749	
-0.007782	-0.001068	0.009918	-0.010223	
-0.013580	-0.000763	-0.018158	-0.016327	
-0.005951	0.011139	-0.024261	-0.013885	
-0.009308	0.003204	-0.016937	-0.011749	
-0.003204	0.010223	-0.012054	-0.004425	
-0.003204	0.007172	-0.023041	-0.008087	
-0.001678	0.010529	0.002594	-0.002289	
-0.011444	0.004120	0.074616	-0.013580	
-0.005341	0.010529	0.064546	-0.005646	
-0.008087	0.007782	-0.000153	-0.010529	
-0.007782	0.004120	0.020599	-0.007782	
-0.010223	0.007172	0.010223	-0.009918	
-0.008087	0.003815	0.009003	-0.013580	
0.005035	0.007782	0.011139	-0.009308	
0.003204	0.011749	0.028534	-0.005951	
-0.001678	0.010834	0.031281	-0.000153	
-0.012970	-0.001678	0.014496	-0.003204	
-0.011139	0.004425	0.013275	-0.000763	
-0.008392	0.001984	0.004730	-0.011139	
0.005646	0.006256	0.027313	-0.004425	
0.002594	-0.001068	0.022125	-0.012054	
0.006866	0.004120	-0.044404	-0.004425	
0.001984	0.002289	-0.098116	-0.009308	
0.002289	0.003815	-0.136873	-0.002899	
-0.004120	0.002594	-0.084687	-0.001373	
-0.001373	0.001068	-0.041657	-0.000153	
-0.007782	-0.005646	0.155489	-0.003815	
-0.005035	0.003204	0.064546	-0.003510	
-0.005341	0.003815	-0.056306	-0.006256	
-0.016937	0.001984	0.119173	-0.004425	
-0.014191	0.000458	0.137789	-0.008392	
-0.001984	0.000763	0.094759	-0.010529	
0.049287	0.003204	0.057832	-0.001678	
0.111238	0.001678	0.049592	-0.005951	
0.072480	0.004120	0.033418	-0.002899	
0.009003	0.000153	-0.001373	-0.008392	
-0.030365	0.000153	-0.046235	-0.001373	
-0.068513	-0.003510	-0.018158	-0.005646	
-0.082551	0.002594	0.015411	0.002899	
-0.088655	-0.004120	-0.023651	-0.007172	
-0.065156	-0.002289	-0.008392	-0.006866	
-0.037995	-0.003510	0.127413	-0.010529	
-0.009918	0.004425	0.115511	-0.000153	
-0.009613	0.001984	-0.030365	-0.006256	
-0.009003	0.002899	-0.059663	-0.011139	
-0.005341	0.002289	-0.077973	-0.011139	
-0.011139	-0.003815	-0.090791	-0.014191	
-0.009613	0.000763	-0.072175	-0.003815	
-0.007782	-0.002289	-0.029755	-0.009918	
0.017242	0.000763	0.034944	-0.000763	
0.046540	0.002289	0.008698	-0.005035	
0.067903	0.002594	0.021210	-0.005646	
0.044099	-0.004120	0.024261	-0.006256	
0.021210	-0.003510	-0.037995	-0.006256	
0.008087	-0.001373	-0.038301	-0.010223	
0.002899	0.004425	0.034333	0.001678	
-0.014801	0.004120	0.007172	-0.006866	
-0.016022	0.014801	-0.030670	-0.002289	
-0.048371	0.008392	-0.025482	-0.008392	
-0.062409	0.012054	-0.117037	-0.004120	
-0.055390	0.014191	0.006866	-0.001068	
-0.025482	0.010834	0.260777	-0.001984	
0.001068	0.007782	0.047151	-0.004425	
0.009003	0.004730	0.053254	-0.009003	
0.005035	0.004120	0.072785	-0.007782	
0.013275	0.001068	0.027008	-0.011444	
0.034638	0.004120	0.016937	-0.009308	
0.023041	-0.002289	0.007782	-0.009613	
0.021210	0.000458	0.091096	0.001678	
0.014801	-0.000763	0.093843	-0.002289	
0.037995	0.007172	-0.027313	-0.003510	
0.019684	0.002899	-0.034333	-0.006866	
0.001678	0.006256	-0.027924	-0.000763	
-0.015717	0.002289	-0.016937	-0.000153	
-0.015106	0.006256	-0.009918	-0.001678	
-0.027618	0.000153	-0.018158	-0.005646	
-0.013885	0.005951	-0.027618	0.003815	
0.006256	0.007172	-0.032502	0.002289	
-0.014191	0.008087	-0.056916	0.004730	
-0.035554	0.009003	-0.077668	0.004120	
-0.043489	0.004730	0.059358	-0.001678	
-0.046235	0.005951	0.101778	0.003815	
-0.059052	0.003204	0.017853	-0.000763	
-0.035859	0.001984	0.017853	-0.004425	
0.000458	0.002289	-0.021515	-0.001984	
0.022430	0.002289	-0.048676	-0.001068	
0.027924	-0.002289	-0.062409	-0.001373	
0.024872	-0.001068	-0.015411	-0.003510	
0.016937	-0.002289	0.028534	-0.009003	
0.016632	0.007782	0.020294	-0.001984	
0.003815	-0.006256	0.034944	-0.017853	
0.005035	0.005035	0.018463	-0.000763	
-0.036164	0.001984	0.022736	-0.008087	
-0.044404	0.004425	0.012970	-0.008087	
-0.016937	0.003815	0.020294	-0.011444	
0.004730	0.010529	0.017242	-0.011749	
0.006866	0.005035	-0.013580	-0.012054	
-0.000763	0.003815	-0.061494	-0.009918	
0.001068	0.000458	-0.134737	-0.006256	
0.009918	-0.009003	-0.183871	-0.011749	
0.026398	-0.008087	-0.196078	-0.010223	
0.018158	-0.021210	0.007782	-0.013885	
0.012970	-0.009613	0.146334	-0.005035	
-0.003204	-0.009918	0.356604	-0.009918	
-0.007172	-0.002899	0.366369	-0.001984	
-0.014191	0.005646	0.121920	-0.005341	
-0.009003	0.012360	0.093537	-0.005646	
0.009003	0.003204	0.088044	-0.004120	
0.022430	0.011139	0.013885	-0.001984	
0.037995	0.008698	-0.062409	-0.007782	
0.031892	0.014801	-0.009918	0.004120	
-0.012054	0.011139	0.013885	-0.005646	
-0.012970	0.008087	-0.041352	-0.009308	
0.056916	0.005035	-0.059663	-0.011139	
0.041963	0.004425	-0.064546	-0.009613	
-0.033723	0.004120	-0.041352	-0.005951	
-0.057832	0.005951	-0.032197	-0.010223	
-0.084077	0.004730	-0.015411	-0.005035	
-0.096590	0.004730	0.014496	-0.010223	
-0.096590	0.006256	-0.016022	-0.010529	
-0.095675	0.009003	-0.061799	-0.013275	
-0.085908	0.012054	-0.069734	-0.017548	
-0.056306	-0.000763	-0.008087	-0.015106	
-0.005035	0.004120	0.062409	-0.001373	
-0.007477	-0.002289	0.001984	-0.001984	
-0.001068	0.005035	-0.117342	0.002899	
0.017242	-0.002899	0.083467	-0.012054	
0.034333	0.002594	0.018768	-0.012054	
0.033113	0.004425	-0.114290	-0.017242	
0.079804	0.009003	-0.005951	-0.014191	
0.138399	0.005646	-0.002289	-0.006866	
0.102083	0.001984	0.043489	-0.005646	
0.046540	-0.003815	0.091706	-0.003204	
-0.015106	-0.011139	0.039521	-0.001373	
-0.047456	-0.002289	0.093232	-0.000153	
-0.067597	-0.003815	-0.026398	-0.003510	
-0.032502	0.005035	0.022125	0.002899	
-0.023651	0.008087	0.019073	-0.005646	
-0.045625	0.017242	0.004425	-0.000763	
-0.067292	0.007172	0.020294	-0.008392	
-0.081635	0.019989	0.030365	0.003815	
-0.037995	0.009003	0.023956	-0.005341	
0.096895	-0.004425	0.031281	-0.001678	
0.088349	-0.017548	0.047151	0.000153	
0.018463	-0.012360	0.034944	0.000153	
-0.032502	-0.015717	0.016022	-0.002289	
-0.045320	-0.013885	0.000763	-0.001373	
-0.036164	-0.003510	0.004120	-0.002899	
-0.017853	0.002594	-0.005035	-0.002899	
0.000458	0.007782	-0.037690	-0.005646	
0.021820	0.007172	-0.069123	-0.007477	
0.025787	0.010834	-0.111544	-0.001984	
0.014496	0.003204	-0.150911	-0.004425	
0.021210	0.005035	-0.092927	0.006561	
0.024261	0.005951	0.143892	0.000153	
0.022736	0.006561	0.204013	0.004120	
0.017242	-0.001068	0.075227	-0.010223	
0.012360	0.008392	-0.033418	-0.006256	
-0.020294	-0.005341	-0.081941	-0.015106	
-0.003510	0.007782	-0.080720	0.000153	
0.019073	0.007172	-0.060273	-0.008087	
0.031892	0.009308	0.085908	-0.001678	
0.027008	0.001678	0.183871	-0.009613	
0.073396	0.000763	0.164645	-0.011444	
0.026398	-0.001068	0.106966	-0.015717	
-0.081025	-0.007782	0.092622	-0.017853	
-0.148775	0.002899	0.013885	-0.007172	
-0.149385	0.011749	-0.015717	-0.012970	
-0.092317	0.016632	-0.070344	-0.011444	
-0.062409	0.009918	-0.070344	-0.008392	
-0.019684	0.016022	0.144197	-0.001678	
0.004120	0.010834	-0.004120	-0.002899	
-0.010223	0.016022	-0.004425	-0.000763	
-0.034944	0.013885	0.216220	-0.011444	
-0.009613	0.009003	0.182956	-0.011444	
0.079804	-0.005951	0.127108	-0.005951	
0.130159	-0.004120	0.013275	-0.000153	
0.091096	-0.006256	-0.070344	-0.011444	
0.034638	0.004425	-0.084992	-0.007782	
0.042268	0.005035	-0.106050	-0.002899	
0.092927	-0.003815	-0.118868	-0.009308	
0.091096	-0.005646	-0.173800	-0.008087	
0.013275	0.000458	-0.260166	-0.009918	
-0.090180	0.003815	-0.159152	-0.014496	
-0.134127	-0.011444	-0.044404	-0.014496	
-0.140230	-0.017548	0.032807	-0.009003	
-0.114290	-0.017548	0.008392	-0.017548	
-0.075227	-0.012054	-0.068818	-0.010223	
-0.048982	-0.024261	0.009003	-0.017242	
-0.041657	-0.012970	0.100252	-0.012054	
-0.037385	0.005951	-0.016937	-0.014496	
-0.015106	0.018768	0.037080	-0.013275	
0.017242	0.013885	0.023041	-0.014496	
0.048676	0.019379	0.041352	-0.010529	
0.042268	0.024567	0.067292	-0.013275	
0.042268	0.041047	0.075837	-0.008392	
0.021210	0.023956	0.046540	-0.013275	
0.010834	0.006866	0.019989	-0.010223	
0.007172	0.005951	0.007782	-0.009308	
0.008392	0.009003	0.006866	-0.009613	
0.009918	0.014191	-0.005951	-0.004425	
0.008087	0.012054	0.017853	-0.001984	
0.008698	0.002289	0.022125	-0.000763	
0.005646	-0.005646	-0.019073	-0.003510	
0.012360	-0.001373	-0.013885	-0.003510	
0.006866	-0.002899	-0.007477	-0.006866	
0.008392	0.005646	0.001678	-0.003510	
0.002594	-0.000153	-0.019989	-0.011139	
0.009003	0.010834	-0.050813	0.002594	
0.000153	0.002899	-0.087739	-0.011444	
0.007782	0.003204	-0.015411	-0.004120	
0.000458	0.003204	0.222630	-0.002289	
-0.003815	0.004425	0.188449	-0.000763	
-0.003204	0.001984	0.075532	0.001678	
-0.000153	-0.001068	0.017242	0.002899	
-0.005646	-0.004120	-0.058442	-0.004425	
-0.009613	-0.002899	0.018158	-0.011444	
-0.003510	0.002594	-0.058442	-0.002899	
-0.008087	-0.004120	-0.011139	-0.005646	
-0.006866	0.001678	0.125887	-0.005646	
-0.007477	-0.006256	0.057832	-0.013580	
-0.010223	-0.002289	0.014191	-0.010223	
-0.010223	-0.002899	-0.012970	-0.016022	
-0.001984	0.002899	-0.012360	-0.009308	
-0.014191	-0.003815	-0.027618	-0.022430	
-0.003815	0.010223	-0.074311	-0.012360	
-0.006866	0.000763	-0.113070	-0.014496	
-0.003204	0.000763	-0.068208	0.001984	
-0.003204	0.003204	-0.041657	0.003204	
-0.002289	0.011749	-0.107271	0.002594	
-0.007782	0.001068	-0.013885	-0.008087	
-0.008087	0.008392	0.257114	-0.004425	
-0.009613	0.011139	0.261997	-0.009003	
-0.008392	0.002289	0.146639	-0.012054	
-0.009613	0.004425	0.105135	-0.005035	
-0.005951	0.008392	0.076753	-0.006256	
0.001678	0.010834	0.007782	-0.003510	
-0.004425	0.010529	-0.059358	-0.004120	
-0.003510	0.013275	-0.064851	-0.005341	
-0.007782	0.007782	-0.077973	-0.013885	
-0.001984	0.010223	-0.106356	-0.007782	
0.001068	0.006256	-0.043489	-0.001678	
0.000763	0.010223	0.172580	0.006866	
-0.003204	-0.000153	0.051728	0.002289	
0.001984	-0.009003	0.040132	0.009308	
-0.011139	-0.031892	0.021515	-0.012054	
-0.008087	-0.033113	-0.000153	-0.011139	
-0.009918	-0.023651	-0.008087	-0.012054	
-0.005951	-0.017853	-0.014191	-0.012054	
-0.004425	-0.012360	-0.020599	-0.012054	
-0.006866	-0.003510	-0.020294	-0.011139	
0.000458	0.002899	-0.015411	-0.008392	
-0.005646	0.004120	-0.019989	-0.010529	
-0.003204	0.007782	-0.023346	-0.010223	
-0.003204	0.004120	-0.043183	-0.007172	
0.010529	0.014496	-0.047761	0.002594	
0.023041	0.003815	-0.063935	-0.004120	
0.024872	0.012054	-0.027618	0.000153	
0.009613	0.011139	0.023041	-0.005646	
0.010529	0.012360	0.071565	0.004120	
0.029755	0.009003	0.071565	0.001678	
0.038606	0.013275	0.061799	-0.000153	
0.013275	0.022736	0.073091	-0.001984	
-0.039521	0.036164	0.036164	-0.000763	
-0.075227	0.028839	-0.012360	-0.002899	
-0.091706	0.028229	-0.067903	0.001068	
-0.110628	0.021820	-0.101168	-0.003510	
-0.108492	0.004730	-0.142672	-0.005951	
-0.092622	0.000458	-0.026093	-0.002899	
-0.051728	-0.005035	0.078889	-0.002899	
-0.006866	-0.012360	-0.069123	-0.004425	
0.016937	-0.024872	0.030060	-0.016327	
0.029755	-0.013580	0.022125	-0.010529	
0.023041	-0.015106	0.117037	-0.011139	
0.024872	-0.013885	0.088655	-0.008392	
0.026093	-0.007782	0.065766	-0.009003	
0.020905	0.008392	0.064851	-0.000763	
0.012360	0.003815	0.021515	-0.014191	
0.019073	0.006866	0.020599	-0.008392	
0.016632	0.005646	0.041657	-0.010223	
0.010529	0.005951	0.019989	-0.010223	
0.008698	0.010223	-0.025787	-0.011749	
0.007782	0.009918	-0.054780	-0.007782	
0.009003	0.016022	-0.077668	0.001068	
0.005035	0.014191	-0.093843	-0.003204	
0.006561	0.012970	-0.043489	0.002594	
-0.001678	0.012360	0.103304	0.004730	
-0.003510	0.018463	0.184176	0.008392	
-0.011749	0.007172	0.133516	0.000763	
-0.006256	0.004425	0.008087	-0.004425	
0.000153	-0.005646	-0.008392	-0.004425	
0.008087	-0.004120	-0.141756	0.005035	
0.010223	-0.001373	-0.182956	-0.000763	
0.002594	-0.002289	-0.137178	-0.008392	
-0.001678	-0.001984	-0.033113	-0.014496	
-0.005646	-0.000153	0.073701	-0.013885	
-0.005035	0.002289	0.089570	-0.003510	
-0.006256	0.004120	-0.032502	-0.005035	
-0.002289	0.000458	0.048371	-0.005341	
-0.005341	-0.003815	0.045014	0.002289	
-0.004425	-0.011139	0.025482	0.004120	
-0.009003	-0.022430	0.009308	-0.003510	
-0.006256	-0.005646	0.004120	0.002594	
-0.011139	-0.002289	-0.020599	-0.005035	
0.000153	0.013275	-0.007172	0.008087	
-0.008087	0.009003	0.070039	0.001678	
-0.005951	0.013275	0.108797	0.006256	
-0.009613	0.006561	0.052949	0.000458	
-0.013885	-0.005646	0.022125	-0.001678	
-0.011139	-0.011444	0.030365	-0.007172	
-0.000153	-0.012970	0.047761	-0.005646	
-0.003204	-0.019379	0.070649	-0.008087	
-0.001373	-0.009918	0.038606	-0.008392	
-0.002899	-0.009003	0.020599	-0.014496	
0.010223	-0.003204	0.024261	-0.012054	
0.005646	0.001068	0.025177	-0.012054	
-0.008087	0.004730	0.009003	-0.007782	
-0.025177	0.026398	0.004120	0.005035	
-0.037080	0.026398	-0.025177	-0.001984	
-0.027313	0.021820	-0.025787	-0.000153	
-0.035249	0.012970	-0.030060	-0.007172	
-0.017242	0.009003	-0.061494	-0.004425	
-0.021820	0.001984	-0.123140	-0.009613	
-0.033113	0.013885	-0.220493	-0.010223	
-0.023956	0.002289	-0.264744	-0.016632	
0.022125	0.021820	-0.056001	0.001678	
0.036469	0.009308	0.235447	-0.008392	
0.032197	-0.006866	0.250706	-0.003815	
-0.019379	-0.015411	0.275120	-0.001373	
-0.050202	-0.023346	0.035554	-0.008392	
-0.001068	-0.019073	0.105440	-0.012970	
0.073091	-0.023956	-0.114290	-0.013885	
0.112459	-0.031281	-0.392920	-0.008087	
0.054475	-0.021515	-0.330358	-0.012970	
-0.034028	0.022430	-0.266880	-0.001984	
-0.127718	0.048982	0.067292	-0.001984	
-0.131685	0.036164	0.360571	-0.001678	
-0.098421	0.018768	0.218967	-0.014191	
-0.063630	0.026398	0.469521	-0.012970	
-0.045625	0.018158	0.427100	-0.024261	
-0.027924	0.034638	0.325475	-0.022125	
-0.013580	0.033113	0.214389	-0.014191	
0.013275	0.027313	0.107576	0.002594	
0.034028	0.008392	-0.166781	0.005951	
0.058137	-0.000763	-0.195773	0.008087	
0.050813	-0.006866	-0.195163	-0.004425	
0.046540	-0.005341	-0.279087	-0.005341	
0.024872	-0.012970	-0.181430	-0.001373	
0.022125	-0.008392	-0.015106	0.001678	
0.037995	-0.019379	-0.026093	-0.005035	
0.060884	-0.030060	-0.173495	0.001068	
0.086823	-0.011444	-0.268711	0.005341	
0.089265	0.003204	-0.128939	0.010834	
0.034944	-0.003815	0.373693	0.020294	
-0.038301	-0.007782	0.434730	0.006866	
-0.051118	0.001984	0.140535	-0.001678	
-0.053254	-0.001984	-0.031281	-0.004425	
-0.029144	0.000153	0.088960	0.002594	
-0.027924	-0.019989	0.059052	-0.006256	
-0.025787	-0.011444	-0.025177	-0.005341	
0.030975	0.012665	-0.135042	-0.010223	
0.139315	0.023346	-0.256199	-0.010223	
0.178073	0.000458	-0.425879	-0.013580	
0.146639	-0.025482	-0.357519	-0.001373	
0.030975	-0.034333	-0.033418	-0.005646	
-0.095064	-0.025482	-0.261997	-0.013580	
-0.137789	0.005951	-0.042268	-0.015717	
-0.132601	0.042573	0.384985	-0.025177	
-0.134737	0.074922	0.194858	-0.036164	
-0.163730	0.048982	0.040437	-0.038911	
-0.214084	0.010529	0.001678	-0.038606	
-0.205539	-0.014191	0.476234	-0.043794	
-0.088349	-0.012054	0.610819	-0.042268	
0.005951	-0.025177	0.218967	-0.058137	
0.074922	-0.043183	0.037080	-0.054170	
0.099031	-0.021820	-0.012360	-0.056306	
0.066072	-0.005035	-0.012360	-0.042268	
0.049287	-0.005951	0.111544	-0.037690	
0.054780	-0.000763	-0.090180	-0.031587	
0.019073	0.011749	-0.165256	-0.025787	
0.012665	0.044709	-0.279087	-0.013580	
0.012360	0.042878	-0.059968	0.003815	
0.012054	0.028229	0.109407	0.003204	
0.027924	0.034638	-0.079194	-0.001984	
0.043183	0.039216	-0.088960	-0.004120	
0.040132	0.037080	0.340428	-0.007172	
0.048066	0.012665	0.244297	-0.010529	
0.044404	0.014496	0.104830	-0.000763	
0.011749	-0.001068	-0.007172	-0.009613	
-0.005951	0.009308	-0.262608	0.000763	
0.008698	0.019379	-0.368200	0.004120	
0.027313	0.006256	-0.066987	0.023651	
0.006561	-0.006256	-0.012970	0.034638	
-0.037080	-0.004120	0.151827	0.029755	
-0.087434	-0.040437	-0.033723	0.013885	
-0.067292	-0.016327	-0.442969	0.019989	
-0.017548	0.032197	-0.402075	0.006256	
0.005951	0.070649	-0.229954	0.012970	
-0.043183	0.049897	-0.144503	0.005035	
-0.082551	0.020294	-0.104525	0.012970	
-0.107882	-0.017853	0.117342	0.016632	
-0.069734	-0.049592	0.124361	0.011139	
0.008392	-0.061189	0.293431	0.006866	
0.118868	-0.031281	0.460059	0.008087	
0.161593	0.016327	0.205234	0.019379	
0.082551	0.043183	0.078889	0.005035	
-0.001373	0.063325	0.073701	0.016937	
-0.057527	0.021210	0.102388	0.019379	
-0.053254	-0.005951	-0.126802	0.028534	
-0.030060	-0.023041	-0.500343	0.022736	
0.008698	-0.025787	0.201266	0.030975	
-0.001068	-0.026398	0.447547	0.019073	
-0.051728	-0.011139	0.274204	0.020294	
0.018768	-0.001678	0.125277	0.016022	
0.140841	-0.005951	0.023041	0.004120	
0.153353	-0.007172	-0.015106	0.000458	
0.088044	0.008087	-0.076753	0.000763	
-0.023346	0.017242	-0.044709	-0.006256	
-0.072175	0.005035	0.104830	-0.007172	
-0.055696	0.007172	0.246738	-0.005951	
-0.039826	-0.006866	0.042878	-0.013580	
-0.033723	-0.010834	-0.136873	-0.011444	
-0.072175	-0.026398	-0.105440	-0.011749	
-0.054170	-0.023346	-0.167087	-0.005646	
-0.015411	-0.029449	-0.207980	-0.016327	
0.006256	-0.019989	-0.166476	-0.005646	
0.009003	-0.034944	-0.147249	-0.015106	
0.019989	-0.009003	-0.093843	-0.000153	
-0.006866	0.019379	-0.054780	0.005035	
-0.022430	-0.005035	-0.055696	0.010529	
-0.091096	-0.039216	-0.168002	0.012054	
-0.082551	-0.023956	-0.233921	0.022736	
0.002594	-0.030060	-0.024261	0.016022	
0.043794	-0.027313	-0.155794	0.007172	
0.019684	0.001984	-0.075837	-0.001984	
0.007172	0.023346	0.303807	-0.001678	
-0.023346	0.009308	0.340428	0.002594	
-0.011444	-0.006866	0.207370	-0.001678	
0.029755	0.007172	0.158237	-0.001984	
0.036775	0.030670	-0.000763	-0.002899	
0.005951	0.028534	-0.066377	-0.009003	
-0.045625	0.012360	-0.093843	-0.011444	
-0.079804	0.004425	-0.113985	-0.011444	
-0.059968	0.017242	-0.072480	-0.008087	
-0.005035	0.066682	0.137178	-0.002289	
-0.009308	0.062104	0.300450	-0.020599	
-0.008087	0.050202	-0.003204	-0.025177	
-0.005341	0.041963	0.027924	-0.027618	
-0.020294	0.036469	-0.057832	-0.025482	
-0.030365	0.015106	-0.028534	-0.025787	
-0.022125	-0.002899	0.147860	-0.020599	
-0.015717	-0.020905	0.192416	-0.012054	
-0.008392	-0.005341	0.103304	-0.019379	
-0.006866	-0.006866	-0.024567	-0.022736	
-0.007477	-0.002899	0.060273	-0.019073	
0.004425	0.006256	0.085908	-0.014191	
0.009613	-0.008087	-0.009613	-0.019989	
0.016937	-0.010834	-0.003815	-0.011444	
0.012970	-0.006866	-0.028229	-0.018463	
0.004730	0.001678	-0.016022	-0.015411	
0.001678	0.000153	-0.021210	-0.017853	
0.005951	0.014496	-0.006256	-0.005341	
-0.008087	0.019989	0.019073	-0.009918	
0.006561	0.017242	0.015411	-0.011139	
0.029144	0.010529	-0.009003	-0.010223	
0.022125	0.018768	-0.044404	-0.012054	
0.012360	0.022125	-0.053559	-0.016632	
0.000763	0.052644	-0.052949	-0.017242	
-0.005341	0.065156	-0.027313	-0.021820	
-0.007782	0.036164	0.004730	-0.029755	
0.010834	0.012970	-0.036775	-0.025177	
0.053864	-0.019379	-0.052033	-0.027924	
0.084077	-0.031587	-0.019684	-0.019684	
0.033113	-0.045320	-0.092317	-0.019379	
0.014801	-0.056611	0.094149	-0.015717	
-0.005646	-0.045930	0.225681	-0.016327	
-0.035554	-0.031281	0.083161	-0.013580	
-0.084992	-0.032502	-0.009308	-0.017548	
-0.096285	-0.018463	-0.417335	-0.019379	
-0.044404	-0.025787	-0.328832	-0.025787	
0.003815	-0.015717	0.164645	-0.020599	
-0.012360	-0.008392	0.476234	-0.026398	
-0.067292	0.016937	0.393835	-0.009918	
-0.105440	0.009308	0.380713	0.005035	
-0.097811	0.000153	0.135653	0.006561	
-0.033418	-0.002899	-0.231785	0.001068	
0.009613	-0.012970	-0.234531	-0.000153	
0.016327	-0.020294	0.063630	0.000153	
-0.008087	-0.020905	-0.147249	-0.005035	
-0.013580	-0.001984	0.091401	0.001678	
0.001068	0.020599	0.193027	-0.005035	
0.012360	0.040437	-0.034638	-0.006256	
0.017853	0.030365	-0.049897	-0.017548	
0.009918	0.016632	-0.040437	-0.016022	
0.009613	0.016937	-0.054170	-0.013580	
0.013275	0.034333	-0.045625	-0.007782	
0.009003	0.037080	-0.054780	-0.015106	
0.019989	0.046845	-0.049897	-0.012054	
0.022430	0.023346	-0.047761	-0.014496	
0.037995	0.015717	-0.044099	-0.010529	
0.043183	0.017242	-0.045625	-0.016327	
0.036775	0.016937	-0.033418	-0.012970	
0.011749	0.012054	-0.029449	-0.016022	
-0.011749	0.010223	-0.021820	-0.010223	
-0.021210	0.008698	-0.012360	-0.005646	
-0.019684	-0.011749	-0.007172	-0.002899	
0.004120	-0.032197	-0.005951	-0.005035	
0.027924	-0.029144	0.004120	0.003815	
0.022736	-0.005951	-0.010834	0.007172	
0.006866	-0.008087	-0.048371	0.001068	
-0.018463	-0.001373	-0.054475	0.002594	
-0.006866	-0.001678	-0.080720	-0.001373	
0.006256	0.016022	-0.124971	0.005341	
-0.004425	0.014496	-0.017548	0.003815	
-0.016022	0.014496	0.234531	0.010834	
-0.045625	0.003204	0.122530	0.005341	
-0.052033	-0.013885	0.064546	0.012665	
-0.007477	-0.035859	0.085298	0.011139	
0.037690	-0.043794	0.062409	0.012665	
0.057221	-0.025482	0.051423	0.013885	
0.042268	-0.009308	0.028839	0.005035	
0.008087	-0.004120	0.027008	0.003815	
0.001678	0.019379	0.019073	0.006866	
-0.004425	0.046235	0.027008	0.005035	
0.002289	0.029144	0.022736	0.000763	
0.009613	0.019379	0.022736	0.011444	
-0.001984	0.010223	0.012665	0.002289	
-0.003510	0.008698	0.018768	0.002594	
-0.019073	-0.008392	0.010529	-0.000763	
-0.017242	0.000763	0.004120	0.002594	
-0.017548	0.002594	0.005951	-0.004120	
-0.019684	-0.001373	0.005341	-0.004425	
-0.014801	-0.001373	0.005341	-0.001373	
-0.016937	0.004120	0.005341	0.002594	
-0.020294	0.004425	0.003204	-0.002899	
-0.031281	0.004730	0.001678	-0.006256	
-0.041047	0.006256	0.002289	-0.006256	
-0.037995	0.002594	0.010529	-0.001984	
-0.026093	0.006256	0.016937	0.006561	
-0.015717	0.000763	0.008698	0.004425	
0.002594	0.005646	0.010223	0.003204	
0.009003	-0.003815	0.010529	-0.005646	
0.004120	0.004730	0.009918	0.004120	
-0.020905	0.005951	-0.018158	-0.005951	
0.000763	0.004730	0.009003	-0.000153	
0.058747	0.009003	0.045014	-0.002899	
0.107882	0.019989	0.071870	0.000458	
0.048371	0.009003	0.036469	-0.008392	
-0.014801	0.012054	-0.016937	-0.000763	
-0.037995	0.012360	-0.020599	-0.000153	
-0.015106	0.010529	-0.004425	0.007172	
-0.005035	0.003815	-0.032502	-0.001984	
0.006866	-0.009003	-0.019684	-0.005951	
0.022736	-0.005035	-0.009613	-0.002899	
-0.004425	-0.013885	-0.018158	-0.011139	
-0.034333	-0.009308	0.006866	0.000153	
-0.085603	0.000458	0.007172	-0.007782	
-0.071870	0.019989	0.004730	-0.004120	
0.007782	0.021820	-0.001678	-0.007172	
0.060273	0.026398	0.008698	-0.009918	
0.010223	-0.001373	0.008087	-0.014191	
0.003815	-0.012054	0.009003	-0.005951	
0.052033	-0.021515	0.008392	-0.013580	
0.019684	-0.016327	0.005341	-0.005646	
-0.045930	-0.021515	-0.011139	-0.014191	
-0.076142	-0.005646	-0.022430	-0.009003	
-0.111544	0.004425	-0.040437	-0.012054	
-0.137178	0.001678	0.051118	-0.007477	
-0.120699	-0.015717	0.113375	-0.008392	
-0.075837	-0.013275	0.030975	-0.011444	
-0.023346	-0.014191	0.013275	-0.016022	
-0.001373	0.005951	0.015411	-0.007172	
0.011139	0.016632	0.017853	-0.007477	
0.043794	0.014496	0.005951	-0.015106	
0.037995	0.024261	0.012665	-0.005646	
0.031281	0.016327	0.005951	-0.011749	
0.024261	0.006256	0.006256	-0.007172	
-0.005035	-0.023346	0.004425	-0.010223	
-0.011139	-0.015106	0.014191	-0.001984	
-0.013580	-0.014801	0.005951	-0.027924	
0.004120	-0.003510	0.007782	-0.019379	
0.094149	0.004120	0.006866	-0.009308	
0.165256	0.012970	0.004425	-0.023651	
0.098421	0.018463	0.001678	-0.027924	
0.043794	0.026703	0.008087	-0.008087	
0.016022	0.011749	0.002289	-0.001984	
0.008392	-0.005341	0.004120	-0.013885	
-0.015106	-0.018158	0.002289	-0.010529	
-0.039521	-0.022430	0.000458	-0.008392	
-0.085603	-0.015717	0.003815	-0.004120	
-0.083161	-0.009918	-0.003510	-0.009918	
0.005646	0.024261	0.009003	0.001068	
0.023041	0.042573	0.010529	-0.010223	
-0.010223	0.054170	0.007172	-0.007172	
-0.025482	0.072480	0.005951	-0.008087	
0.005035	0.078584	0.010529	-0.005341	
0.011139	0.027008	0.004120	-0.015411	
0.012665	0.008087	0.010834	-0.008392	
0.000763	-0.002289	0.008087	-0.016327	
-0.010834	-0.007172	0.013885	-0.007172	
-0.015717	-0.016327	0.015411	-0.005646	
-0.019989	-0.012360	0.012970	-0.009308	
-0.028229	-0.017853	0.010223	-0.010529	
-0.058442	-0.019684	0.003204	-0.016022	
-0.079194	-0.018158	0.008392	-0.006256	
-0.049592	-0.015106	0.001984	-0.011139	
0.014191	-0.008087	0.011139	-0.002899	
0.053864	-0.006866	0.008698	-0.002899	
0.060884	0.001984	0.013885	0.000153	
0.038606	-0.005951	0.004730	-0.007782	
0.014191	0.004425	0.004120	-0.010529	
-0.004425	0.016022	-0.005341	-0.015717	
-0.009003	0.016327	0.002289	-0.004425	
-0.021820	0.015106	0.010529	0.007172	
-0.015411	0.010529	0.014191	-0.001678	
-0.013580	-0.005646	0.020599	-0.005951	
-0.024872	-0.021515	0.015411	-0.006256	
-0.025482	-0.033723	0.013275	-0.011749	
-0.019684	-0.026398	0.019989	0.002594	
-0.024872	-0.026398	0.014496	0.003815	
-0.025482	-0.016327	0.010529	0.000763	
-0.005646	-0.007172	0.007172	-0.008392	
0.016937	0.000153	0.009003	-0.002899	
0.054170	0.013885	0.011749	0.002899	
0.025787	0.011749	0.003815	-0.007477	
-0.008392	0.022430	0.009003	0.001984	
-0.033723	0.011139	0.000458	-0.001068	
-0.025177	0.006561	0.006561	-0.003204	
-0.025177	-0.005341	0.004120	-0.011749	
-0.021210	-0.010834	0.003204	0.008392	
-0.018463	0.000458	0.000153	0.009003	
-0.016327	0.012970	-0.002289	-0.005646	
-0.019684	0.010223	-0.001678	-0.013885	
-0.004425	0.013885	0.004120	-0.015106	
0.005646	0.008087	0.002289	-0.021820	
0.005646	0.008698	0.012054	0.005951	
-0.003815	0.004425	0.012665	0.020599	
-0.009613	0.002899	0.004120	0.003204	
0.012665	0.010223	0.011749	-0.005646	
0.026398	0.024567	0.010834	-0.009003	
0.020905	0.034638	0.007172	-0.006256	
0.007172	0.020294	0.004120	-0.003204	
-0.005646	0.015106	0.008087	0.000763	
-0.008087	0.001678	0.004120	-0.001373	
-0.001984	-0.001068	0.012054	-0.001678	
-0.002289	-0.014191	0.009918	-0.005951	
0.005951	-0.013580	0.010529	-0.000763	
-0.019684	-0.012360	0.007782	-0.005341	
-0.040437	-0.008087	0.010834	-0.000153	
-0.038301	-0.005341	0.002899	-0.014496	
-0.016022	0.026093	0.006256	-0.012970	
-0.015411	0.032502	0.001068	-0.001984	
-0.000153	0.026093	0.000458	0.004425	
0.023041	0.024261	-0.001678	0.017242	
0.050508	0.017853	-0.000763	0.018768	
0.084382	0.012970	0.009918	0.003815	
0.051118	-0.001373	-0.001678	-0.031892	
0.025787	-0.000763	0.001678	-0.064851	
0.013885	-0.012360	0.009003	-0.058137	
-0.002289	-0.005646	0.030975	0.003815	
-0.011139	0.000458	0.025177	-0.000153	
-0.015106	-0.000153	0.019379	0.010223	
-0.019684	0.001678	0.014801	0.009003	
-0.014191	0.007172	0.016632	0.005035	
-0.027618	-0.002289	0.014191	-0.011444	
-0.031587	0.002899	0.016022	-0.008087	
-0.034944	-0.003510	0.004730	-0.012970	
-0.011444	0.000458	0.011139	-0.006256	
0.002594	-0.004120	0.006866	-0.009003	
-0.011444	0.004425	0.006561	0.000763	
-0.035554	0.005951	0.009918	-0.004425	
-0.043489	0.008698	0.006256	-0.005951	
-0.045930	0.012360	0.011139	0.003815	
-0.065156	0.004425	0.008087	-0.001984	
-0.070039	-0.001984	0.010529	0.000153	
-0.043183	0.001984	0.003204	-0.002899	
-0.009003	0.006256	0.004730	0.005341	
0.015106	0.004120	0.000458	0.005951	
0.039216	0.021820	0.009308	-0.000153	
0.035249	0.005951	0.001984	-0.022736	
0.043183	-0.006866	0.002289	-0.027313	
0.062409	-0.020294	0.002899	-0.024567	
0.032807	-0.029449	0.001984	0.010223	
0.000153	-0.025787	0.007172	0.019379	
-0.007172	-0.025177	0.004120	0.010223	
-0.008087	-0.015106	0.002899	0.020599	
-0.012054	-0.003815	-0.006256	-0.009613	
-0.015106	0.004425	0.000763	-0.048371	
-0.023651	0.007782	0.001984	-0.082246	
-0.009308	0.016022	0.015411	-0.056001	
-0.009613	0.004425	0.031281	-0.023651	
0.000763	0.014496	0.042268	0.002594	
-0.002289	0.015106	0.029144	0.033723	
0.002899	0.021820	0.020599	0.039826	
-0.001984	0.006866	0.010529	0.021210	
-0.002899	-0.000763	0.010529	-0.005646	
-0.006866	-0.002899	0.010529	-0.032197	
-0.004120	0.004120	0.011749	-0.001373	
-0.006866	0.005951	0.009003	-0.013275	
0.000458	0.007172	0.012970	0.003815	
-0.008087	0.000763	-0.001984	0.031281	
0.000153	0.008087	-0.000763	0.016632	
-0.003815	0.004425	-0.004425	0.008392	
0.001678	0.008698	0.004425	0.009308	
-0.003815	0.010223	0.012970	0.002899	
-0.002289	0.002899	0.010529	-0.012970	
0.000458	0.004120	0.012665	-0.012054	
-0.005035	-0.003510	0.004425	-0.026398	
-0.006866	0.001984	0.012665	-0.003204	
-0.007172	0.005951	0.008392	0.012665	
-0.003510	0.005035	0.011139	0.022430	
-0.011444	0.004120	0.008392	0.005035	
-0.005035	0.007782	0.005341	-0.024567	
-0.006866	0.001678	-0.001373	-0.016022	
-0.005035	0.002899	0.002899	0.015106	
-0.001373	-0.002289	0.003204	-0.019379	
0.004730	0.001984	0.008698	-0.012970	
-0.004120	-0.002289	0.009918	-0.040437	
-0.006866	-0.001373	-0.001068	-0.068513	
-0.006866	-0.003204	-0.002899	-0.050508	
-0.008087	0.001984	0.019379	0.015411	
-0.010223	0.004425	0.022430	0.052949	
-0.002289	0.008087	0.012665	0.029449	
0.026093	0.008698	0.010529	-0.050202	
0.014496	0.006561	0.011139	-0.063935	
0.006561	0.011749	0.028534	0.009308	
-0.008392	0.008698	0.016022	-0.012970	
-0.005035	0.026398	0.023346	0.030975	
-0.019684	0.004425	0.006256	0.034638	
-0.013580	0.004425	0.002594	0.038911	
-0.020905	0.002289	0.008698	0.051728	
-0.018158	0.004120	0.020294	0.015411	
-0.031587	-0.007782	0.005951	0.007172	
-0.022430	-0.009308	0.013275	0.038301	
-0.012054	-0.005035	0.011749	0.034638	
-0.009003	-0.005341	-0.001068	-0.002899	
-0.006866	0.000458	-0.008087	-0.041657	
-0.006256	0.012054	-0.002899	-0.058747	
-0.001068	0.008087	0.006866	-0.081330	
-0.005341	0.000458	0.002594	-0.058137	
-0.003204	0.005951	0.017853	-0.021820	
-0.009308	-0.002289	0.023041	-0.046235	
0.001068	0.005035	0.020294	-0.060884	
-0.001984	0.005035	0.006866	-0.067903	
0.005951	0.010529	0.015411	-0.015106	
-0.005646	0.004730	0.005951	-0.013885	
-0.000763	0.008392	0.005951	-0.022125	
-0.005341	0.004425	0.001678	-0.028229	
-0.001678	0.003815	0.012665	0.003815	
-0.007172	-0.006256	0.007782	-0.006256	
-0.006866	0.002594	0.005341	-0.019379	
-0.005646	0.003204	0.015411	-0.006866	
0.004120	0.010223	0.022125	0.018158	
0.003815	0.010834	0.007782	-0.013885	
0.004730	0.010223	0.000458	-0.031281	
0.001068	0.009308	-0.001068	-0.095675	
-0.004425	0.008392	-0.006256	-0.086213	
-0.003204	0.006256	0.000458	-0.030365	
-0.008087	0.001984	-0.000763	0.010223	
-0.001068	0.004425	0.005341	0.099947	
-0.007477	-0.001373	0.008698	0.106661	
-0.002289	0.000458	0.022430	0.095675	
-0.008087	-0.005035	0.014496	0.120089	
-0.003815	0.006561	0.017853	0.193027	
-0.009613	-0.002289	0.001068	0.102694	
-0.005341	0.002594	0.000153	-0.029449	
-0.003815	0.006561	0.001984	-0.124056	
-0.001068	0.005035	0.006256	-0.158847	
-0.007172	-0.000763	0.010223	-0.180820	
-0.003510	0.008392	0.011139	-0.141146	
-0.006256	0.004425	0.008698	0.018463	
-0.009003	0.003815	0.004730	0.082551	
-0.013885	-0.005341	0.000458	0.081330	
-0.008087	0.004120	0.003204	0.238499	
-0.003204	0.008087	0.007782	0.238194	
-0.002899	0.001984	0.004425	0.132296	
-0.001678	0.004425	0.008087	0.114595	
-0.003815	0.000153	0.006866	0.038301	
0.010223	0.004120	0.006256	0.010223	
0.013275	-0.002289	-0.005951	-0.082551	
0.019073	0.004425	-0.003815	-0.155794	
0.008392	-0.000763	-0.011444	-0.135042	
0.008087	0.007782	-0.005646	-0.036164	
-0.000153	0.006256	-0.014496	0.005035	
-0.001984	0.014496	-0.000763	0.005035	
-0.005646	0.011749	0.027313	0.042573	
-0.009613	0.014191	0.027924	0.041352	
-0.008392	0.017242	0.028839	0.116121	
-0.016327	0.012054	0.023041	0.069123	
-0.026398	0.010529	0.012970	-0.068513	
-0.025177	0.006256	0.006866	-0.222019	
-0.015717	-0.003815	-0.002899	-0.265659	
-0.015411	-0.009308	-0.007477	-0.166476	
-0.003204	-0.018158	0.010834	-0.138399	
-0.003815	-0.017853	0.018463	-0.095064	
0.006256	-0.001068	0.032807	0.020905	
0.008087	-0.005646	0.015411	-0.012970	
0.002899	-0.010834	0.000153	-0.065461	
-0.013580	-0.010834	0.002594	-0.139925	
-0.012360	0.000153	0.015411	-0.228733	
-0.001984	0.004120	0.018463	-0.150911	
0.016937	0.026703	0.025482	0.102694	
0.011749	0.032197	0.009003	-0.022125	
0.010529	0.019073	0.001984	-0.083467	
0.026703	0.019073	0.015411	0.122835	
0.016327	0.012054	0.017853	0.313268	
-0.016022	-0.003510	0.017242	0.277256	
-0.034028	-0.017853	0.016937	0.183261	
-0.014191	-0.009003	0.019989	0.171359	
-0.003204	-0.013275	0.003204	0.158847	
0.004730	-0.003204	0.002289	0.105745	
-0.007782	-0.004120	-0.009613	-0.040437	
-0.021210	0.012970	-0.008087	-0.162509	
-0.041657	0.007172	-0.015411	-0.323033	
-0.028839	0.008698	-0.010223	-0.458838	
-0.011444	0.005951	-0.027313	-0.380407	
0.016937	0.000458	-0.027313	-0.007172	
0.018463	-0.005341	-0.011749	0.140841	
0.006866	0.005951	0.008698	0.012054	
-0.001068	0.003204	0.013275	-0.009918	
-0.001068	0.004425	0.039216	0.022125	
-0.000763	0.003204	0.052644	-0.078279	
-0.002899	0.000458	0.037690	-0.219883	
-0.004425	-0.001373	0.044404	-0.301366	
-0.005646	-0.000153	0.038606	-0.260777	
-0.005035	0.003204	0.027008	-0.011139	
-0.007172	-0.001068	0.012054	0.597696	
-0.001068	0.000153	0.010223	0.601053	
-0.007782	-0.001068	0.016937	-0.060273	
-0.003204	0.001678	0.010529	-0.108797	
-0.008392	-0.004120	-0.011444	0.136873	
-0.003510	0.001678	-0.008392	0.379797	
-0.009003	-0.002899	0.006866	0.539407	
-0.007477	0.002899	0.007172	0.250401	
-0.009308	-0.001373	-0.002899	0.092011	
-0.009003	-0.001068	0.005035	0.144197	
-0.011139	0.002899	-0.009003	0.006866	
-0.010834	0.002594	-0.025482	-0.025177	
-0.009003	0.005035	-0.006866	-0.151522	
-0.005035	0.001984	0.005035	-0.191501	
-0.003815	0.002289	-0.009003	-0.019379	
-0.009003	0.002899	-0.009613	0.234226	
0.000763	0.008087	-0.000763	0.061494	
-0.006256	0.004425	0.005341	-0.133516	
-0.005035	0.009308	0.034944	-0.065156	
-0.007782	0.002594	0.023346	-0.233006	
-0.002899	0.004120	0.004730	-0.430762	
-0.006866	0.003815	0.003204	-0.404211	
-0.002289	0.006561	0.016937	-0.220188	
-0.007782	0.000458	-0.001678	-0.225986	
-0.005951	0.002289	-0.011749	-0.195773	
-0.011749	0.004425	-0.001068	-0.011749	
-0.001373	0.005646	0.016022	0.034944	
-0.003815	0.003815	0.038606	0.352942	
-0.004120	0.006256	0.049287	0.383764	
0.001678	0.008392	0.045014	0.042573	
-0.000153	0.011749	0.038606	-0.034028	
-0.003815	0.011139	0.018768	-0.381933	
-0.005951	0.005951	0.002899	-0.491493	
-0.001984	0.010223	0.000458	-0.270542	
-0.005341	0.005035	-0.013275	-0.064546	
-0.002289	0.005646	-0.023956	0.324559	
-0.008087	0.003815	-0.013275	0.528114	
-0.001373	0.010529	0.023346	0.378881	
-0.005035	0.002899	0.044404	0.290074	
0.001678	0.007172	0.040437	0.307469	
-0.005951	-0.001068	0.016022	0.160983	
-0.003204	0.006561	0.010529	0.082551	
-0.006866	-0.003510	-0.003815	0.030975	
0.005951	0.003204	0.006866	-0.003204	
0.001068	-0.000153	-0.009308	-0.038301	
0.005035	0.000458	-0.017548	-0.068208	
-0.001984	-0.000153	-0.019989	-0.091706	
-0.004425	-0.000153	-0.027008	-0.118258	
-0.004120	-0.004120	-0.021515	-0.146944	
-0.009308	-0.008087	-0.017242	-0.198520	
-0.006256	-0.004120	0.010223	-0.243076	
-0.008087	-0.002289	0.037080	-0.176547	
0.000458	0.007782	0.043183	-0.090486	
-0.002899	0.004120	0.027924	-0.124971	
-0.004425	0.004120	0.027924	-0.113375	
-0.008087	-0.000153	0.023346	-0.011749	
0.001068	0.009308	0.014191	-0.032502	
-0.003510	0.007782	0.005951	-0.103609	
0.000153	0.006866	0.004120	-0.146639	
-0.005951	0.004120	-0.007477	-0.135958	
-0.004425	0.011749	0.001984	-0.363623	
-0.005951	0.005951	0.019379	-0.338902	
-0.003510	0.004730	0.040742	0.228123	
0.001984	0.008087	0.043183	0.440833	
-0.000763	0.006561	0.036164	0.370642	
-0.000153	0.007172	0.023041	0.264744	
-0.003510	0.007782	-0.023346	0.111238	
-0.003510	0.010223	-0.021820	0.073396	
-0.005341	0.004120	0.005951	0.141756	
-0.004120	0.005646	-0.008392	0.132601	
-0.011749	0.011749	-0.030060	0.106050	
-0.008392	0.016327	-0.028229	0.070344	
-0.016022	0.005035	-0.035554	-0.083467	
-0.011139	0.007782	0.001678	-0.180820	
-0.020294	-0.016327	0.020294	-0.190890	
-0.017242	-0.019379	0.026398	0.005035	
-0.017242	-0.015411	0.034028	0.060273	
-0.016327	-0.004120	0.021210	-0.018463	
-0.019073	-0.011444	-0.018158	-0.184482	
-0.011444	0.004120	0.009003	-0.194552	
-0.012360	0.015106	0.040437	-0.120394	
-0.015411	0.024261	0.057221	-0.005951	
-0.014191	0.017242	0.044404	0.018158	
-0.019073	-0.007172	0.019989	0.034638	
-0.017548	-0.020905	0.010529	0.002899	
-0.012054	-0.011444	0.013275	-0.037385	
-0.004425	0.006256	0.024872	-0.019379	
-0.015411	-0.006256	0.017242	-0.038606	
-0.006866	0.008087	0.014801	-0.083772	
-0.004120	0.009308	0.023346	0.009003	
0.001984	0.018768	0.032807	0.045625	
-0.005035	0.012970	0.015411	0.016327	
0.002289	0.010834	0.006256	0.002289	
-0.000153	0.004425	-0.001068	0.012665	
-0.001068	-0.000763	-0.011749	0.055696	
0.001068	0.002594	-0.004425	0.066072	
0.005035	0.000458	-0.008392	0.012360	
0.005035	0.002289	-0.000763	-0.010223	
0.002289	0.000153	-0.003204	-0.025787	
-0.000153	0.001984	-0.003204	-0.023346	
0.003204	0.005951	-0.004120	-0.005035	
0.004120	0.005646	0.001068	0.021210	
-0.001068	-0.003510	-0.001678	0.051118	
0.004120	0.001678	0.003815	0.053864	
0.006866	0.000153	0.001068	0.019379	
0.007782	0.004425	0.002899	-0.002289	
0.003204	0.004120	-0.001068	-0.006866	
0.003815	0.001984	0.001678	0.000458	
-0.005646	-0.005341	-0.001068	0.001678	
-0.003204	0.001984	0.001984	-0.000763	
-0.009613	-0.008392	0.000153	-0.012970	
-0.005341	-0.004120	0.006866	-0.009918	
-0.003204	-0.000763	0.007172	-0.014191	
-0.007782	-0.001373	0.002899	-0.011749	
-0.010223	-0.004120	0.001068	-0.011444	
-0.009308	-0.003204	0.004730	-0.011139	
-0.007782	0.001678	0.010529	-0.013885	
-0.008087	0.000763	0.008087	-0.016327	
-0.006256	0.007172	0.015411	-0.015411	
-0.013275	0.002594	0.007172	-0.015106	
-0.006866	0.005646	0.016937	-0.004425	
-0.007782	0.004730	0.011139	-0.009003	
-0.001678	0.010834	0.016632	-0.001678	
-0.003204	0.004425	0.017242	-0.001678	
-0.000763	0.008392	0.021210	0.005341	
-0.005035	0.004425	0.016937	-0.015106	
-0.000763	0.005035	0.009918	-0.015106	
0.000153	0.004120	0.007782	-0.015106	
0.002594	0.007782	0.012970	-0.006256	
0.002289	0.004730	0.014191	-0.012054	
0.005646	0.004425	0.011139	-0.010529	
0.004730	0.007782	0.013885	-0.011749	
-0.005646	0.002289	0.008087	-0.020599	
0.000153	0.002289	0.008392	-0.011139	
0.000763	0.001678	0.009918	-0.000153	
0.005646	0.008392	0.017853	0.005035	
0.005951	0.004120	0.011749	-0.005646	
0.010529	0.010223	0.011749	-0.005646	
0.003204	0.004425	0.004730	-0.012970	
0.004425	0.008087	0.008392	0.000153	
0.003204	0.005951	0.006866	0.002899	
0.012360	0.016937	0.016327	0.010834	
0.001984	0.007782	0.005951	-0.010529	
-0.009613	0.004425	0.007782	-0.033418	
-0.009308	0.005951	0.011749	-0.023346	
-0.010834	0.002899	0.008698	-0.012970	
-0.017242	-0.005951	0.004120	-0.009003	
-0.013275	-0.001068	0.009918	0.005035	
-0.017242	0.003815	0.004425	0.017242	
-0.011444	0.004425	0.005951	0.008392	
-0.011444	0.008392	0.011139	-0.001678	
-0.014191	0.006256	0.008392	0.003204	
-0.014191	0.002899	0.008698	-0.003815	
-0.013580	0.001068	0.010223	0.001984	
-0.009003	0.005035	0.013275	0.011444	
-0.017242	0.000458	-0.001678	-0.008392	
-0.009003	0.004120	0.005341	-0.006256	
-0.010223	-0.001373	0.009003	-0.005646	
-0.004120	0.002289	0.016937	-0.003510	
-0.004425	-0.001984	-0.005341	-0.011139	
-0.001373	0.003204	-0.020599	-0.009003	
-0.001984	-0.001373	-0.041963	-0.019379	
-0.001678	-0.005035	-0.033418	-0.015106	
-0.004425	-0.003204	0.002594	-0.011444	
-0.003510	-0.004120	0.027008	-0.012360	
-0.001678	-0.001373	0.115206	-0.006256	
-0.005341	-0.000763	0.114290	-0.009918	
-0.005951	0.002289	-0.021820	-0.007477	
-0.009613	0.000763	-0.083772	-0.016022	
-0.007172	-0.001373	-0.089265	-0.015717	
-0.009918	-0.002289	0.001678	-0.020294	
-0.009613	0.001984	0.060273	-0.015717	
-0.012360	0.000153	0.008392	-0.015106	
-0.007172	0.010223	0.104830	-0.009003	
-0.005951	0.008087	0.071259	-0.011444	
0.001068	0.006866	0.009308	-0.002289	
-0.001678	0.001984	-0.035554	-0.000153	
0.004120	0.004425	-0.015106	0.002289	
-0.002289	-0.000763	0.185702	-0.006866	
0.001068	0.004425	0.173800	-0.007172	
-0.001373	0.001984	-0.158542	-0.009613	
-0.003510	0.004120	-0.287023	-0.015106	
0.001678	0.002594	-0.391088	-0.007477	
-0.001373	-0.001068	-0.403601	0.005035	
0.000458	0.003815	0.052339	0.014496	
-0.002289	-0.003204	0.301366	0.012054	
0.005035	0.008087	0.087434	0.014191	
0.001678	0.001678	0.151522	-0.001984	
0.011139	0.005951	0.153353	0.006561	
0.000153	-0.007172	0.168002	-0.003204	
0.001068	-0.004120	0.313878	-0.000763	
-0.000153	-0.008087	0.288854	-0.003204	
0.007782	0.000763	0.082551	0.001984	
-0.000153	0.004730	0.057221	0.005035	
-0.011749	0.005951	0.046540	-0.000763	
-0.016022	0.005646	0.003204	0.005035	
-0.028839	0.006256	-0.081941	0.010223	
-0.033113	0.007782	-0.198825	0.010529	
-0.032502	0.005035	-0.323033	0.009918	
-0.031892	0.006561	-0.061799	0.005035	
-0.031587	0.002594	-0.240940	-0.015411	
-0.018463	0.009308	-0.379797	-0.010223	
-0.014801	0.006256	0.123140	-0.005035	
-0.003815	0.011749	0.326695	0.008392	
-0.008087	0.004120	0.092622	-0.002289	
-0.001984	0.011749	0.106050	-0.005646	
-0.005341	0.008392	0.134737	-0.019989	
0.000763	0.018158	-0.045625	-0.015106	
0.001984	0.008392	-0.276951	-0.015717	
0.012054	0.012360	-0.312352	-0.014191	
0.003815	0.002899	0.147554	-0.025482	
0.010834	0.009308	0.167087	-0.005646	
0.007172	0.005951	0.104830	-0.011749	
0.009613	0.009308	0.151827	-0.010529	
0.005951	0.004120	0.225681	-0.009918	
0.004120	0.004425	0.239414	-0.015717	
0.003815	0.006256	0.099337	-0.013885	
0.003815	0.006256	0.022430	-0.011444	
-0.000153	0.007782	-0.049592	-0.013275	
-0.001984	0.009003	-0.037995	-0.010223	
0.005951	0.011749	0.113985	-0.010223	
0.000458	-0.001373	-0.027313	-0.011749	
0.004730	0.005951	-0.014191	0.002899	
0.006866	0.005035	-0.052644	-0.003204	
0.004120	0.005646	-0.168612	-0.002289	
-0.006866	0.001984	-0.070039	-0.011444	
0.000458	0.006561	-0.064546	-0.009613	
-0.009308	-0.000153	-0.159762	-0.011444	
-0.011139	0.004425	-0.157016	-0.003510	
-0.013275	0.004425	-0.187839	-0.005341	
-0.007782	0.005035	-0.098421	0.002899	
-0.009613	-0.002899	0.214389	0.006866	
-0.005951	0.002289	0.205234	0.013885	
-0.006256	0.001678	0.121004	0.000153	
-0.006866	0.000763	0.000458	-0.001373	
-0.005951	0.003204	-0.061494	0.005951	
-0.009918	0.000458	-0.003510	0.000153	
-0.006866	-0.000153	-0.044709	0.013885	
-0.003510	-0.004120	0.066377	0.014191	
0.000763	0.002899	-0.054475	0.022430	
-0.001068	-0.006256	-0.150606	0.015411	
0.002594	0.001068	-0.029144	0.018463	
-0.000153	-0.003510	0.082551	0.015411	
0.004730	0.001984	0.092011	0.017242	
0.000153	-0.002289	0.072480	0.011139	
-0.000763	0.006256	-0.049287	0.016632	
-0.005646	0.001068	0.134737	0.006561	
-0.001984	-0.003815	0.215304	0.004120	
0.002289	0.003204	0.021515	0.003815	
-0.002899	-0.003510	-0.071870	-0.005646	
-0.002289	0.000763	-0.130159	-0.001068	
-0.009003	0.003204	0.190280	-0.006866	
-0.002289	0.005646	0.139925	-0.003510	
-0.005035	0.000153	-0.037690	-0.006256	
-0.003815	0.003815	-0.050508	-0.003204	
-0.006256	0.002899	-0.083161	-0.008087	
0.004730	0.008392	-0.038606	-0.003204	
0.002289	0.004120	-0.181735	-0.011749	
0.006561	0.013885	-0.121614	-0.007477	
-0.000153	0.004730	-0.016937	-0.021515	
0.004730	0.004425	0.135347	-0.015411	
0.000763	0.002899	0.060578	-0.019684	
0.000458	0.003204	0.111238	-0.016022	
-0.009308	-0.003204	0.081330	-0.016022	
-0.006866	0.005035	0.122530	-0.011444	
-0.007477	0.005035	0.222630	-0.017853	
-0.006866	0.008087	0.095980	-0.013885	
-0.006256	0.008087	0.074006	-0.016327	
-0.011444	0.000763	0.008087	-0.019379	
-0.005341	0.004120	-0.006256	-0.005646	
-0.011139	-0.003815	0.048676	-0.010529	
-0.009003	0.004120	0.128328	-0.009918	
-0.009918	-0.001373	0.024872	-0.017242	
-0.006256	-0.001678	-0.030060	-0.014191	
-0.012054	0.003204	-0.113070	-0.019379	
-0.006256	0.004425	-0.180209	-0.022430	
-0.010223	0.002289	-0.202487	-0.019379	
-0.010834	0.009308	-0.182040	-0.010529	
-0.015411	0.000763	-0.056306	-0.021515	
-0.009613	0.002289	0.059358	-0.016632	
-0.013580	0.001678	0.057527	-0.019379	
-0.010223	0.004120	0.036775	-0.014191	
-0.007782	-0.000153	0.064546	-0.016022	
-0.009918	0.000153	0.030670	-0.011749	
-0.007172	0.004120	-0.033418	-0.005646	
-0.007477	0.004120	-0.066072	-0.012970	
-0.006256	0.003815	-0.140535	-0.011139	
-0.012360	-0.000763	-0.117647	-0.014496	
-0.003815	0.005951	-0.031892	-0.011444	
-0.006866	0.003204	-0.096590	-0.019379	
-0.005951	0.008087	-0.133211	-0.021210	
-0.005035	0.000458	-0.027008	-0.018158	
-0.000763	0.004120	0.061799	-0.009918	
-0.004120	0.000458	0.204318	-0.013885	
-0.003204	0.001068	0.135958	-0.013580	
-0.005951	-0.001984	0.118258	-0.012054	
-0.003510	0.002289	0.047151	-0.005035	
-0.011139	-0.002899	0.049287	-0.011444	
-0.006256	-0.003510	0.083161	-0.004120	
-0.010223	-0.005646	-0.104830	-0.003510	
-0.005951	-0.002289	-0.099031	-0.005035	
-0.002289	-0.000153	0.231480	-0.005951	
-0.009003	0.001678	0.117647	-0.007172	
-0.005341	0.005951	0.075837	-0.013580	
-0.008087	-0.001984	0.136568	-0.023651	
-0.001984	0.008087	-0.004425	-0.012054	
-0.003204	0.007782	-0.114901	-0.015717	
0.000153	0.007172	-0.098421	-0.012970	
-0.003815	0.001678	0.079194	-0.011444	
-0.000763	0.002594	0.091401	-0.001678	
-0.001068	0.005951	-0.133821	-0.005341	
0.001984	0.006561	-0.110323	-0.008392	
-0.005035	-0.003815	-0.097811	-0.016632	
-0.001678	0.000458	-0.072785	-0.014496	
-0.003815	-0.001984	-0.043489	-0.022430	
-0.005035	0.000153	0.027313	-0.023651	
-0.001984	0.005951	0.270542	-0.017853	
-0.005341	0.002899	0.310216	-0.021515	
-0.008392	0.002594	0.158237	-0.019379	
-0.013580	0.000763	0.011749	-0.027313	
-0.006866	0.002899	-0.064240	-0.019989	
-0.004425	0.002594	-0.098726	-0.019379	
-0.001678	0.004730	0.012970	-0.020599	
-0.005951	0.005646	0.201266	-0.019989	
-0.001068	0.008087	0.016937	-0.012054	
-0.005035	0.004425	-0.075837	-0.007172	
-0.005341	0.009003	-0.142977	-0.010529	
-0.006256	0.002899	0.097200	-0.013885	
-0.006256	0.004730	0.102083	-0.002899	
-0.009308	0.003204	-0.020294	-0.011749	
-0.003815	0.004120	0.016022	-0.010529	
-0.009308	0.001678	-0.086823	-0.008087	
-0.001068	0.010223	-0.070344	-0.001678	
-0.001678	0.004425	-0.079194	-0.003815	
-0.006256	0.002899	-0.061799	0.002289	
-0.003204	0.003204	0.155794	0.008698	
-0.008392	0.002899	0.110933	0.005951	
-0.001068	0.004120	0.061799	0.007782	
-0.009003	-0.002289	-0.098116	0.003815	
-0.001373	0.007782	-0.146639	0.005951	
-0.001984	0.000153	-0.108797	-0.005035	
0.003204	0.007172	0.112154	0.004730	
-0.003510	0.004425	0.025482	0.003204	
-0.003815	0.003204	0.001984	0.008087	
-0.008087	-0.000763	0.005341	0.005951	
0.000458	0.008698	-0.007172	0.007172	
0.000458	0.003815	-0.017548	0.002899	
-0.000763	0.004425	-0.034333	0.003815	
-0.000153	0.004425	-0.011444	0.008698	
-0.002899	0.007172	0.022125	0.007782	
-0.007782	-0.000763	-0.011139	-0.000763	
-0.004425	-0.001373	0.029144	0.002899	
-0.001678	0.004120	0.021210	0.000153	
0.002594	-0.000763	0.006866	-0.004120	
0.002594	0.002899	0.009918	0.002899	
-0.001984	0.003815	0.008698	-0.002289	
0.000458	0.004730	0.012665	0.000763	
-0.004425	0.004425	0.010223	-0.005341	
-0.001678	0.008698	0.002594	-0.002289	
-0.014191	0.000153	-0.014496	-0.012360	
-0.008392	0.004120	-0.006256	-0.009003	
-0.006866	0.001678	-0.007172	-0.009613	
-0.001373	0.008698	0.005341	-0.001068	
-0.003815	0.002289	0.008698	-0.004120	
-0.000763	0.001678	0.021515	0.001678	
-0.007782	-0.006256	0.053254	-0.003204	
-0.006256	-0.003815	0.042268	-0.003510	
0.002289	0.002289	0.034333	0.002289	
-0.001678	-0.002899	0.022125	-0.005646	
-0.001678	-0.001068	0.012054	0.002289	
-0.001984	0.000153	0.006866	0.002594	
0.002594	0.008087	0.009308	-0.001678	
0.001068	0.007172	0.006866	-0.002899	
0.004730	0.004425	0.008392	-0.000763	
-0.001068	-0.000763	0.005341	-0.003510	
-0.000763	0.008698	0.012665	0.003815	
-0.005951	0.000763	-0.001984	-0.004120	
-0.001068	0.008698	-0.011139	0.002594	
-0.005951	0.009308	-0.011749	-0.000153	
-0.001068	0.009308	-0.013885	0.002899	
-0.005951	0.005035	-0.031892	0.005951	
-0.004120	0.009308	-0.044099	0.005341	
-0.000153	0.008392	0.077973	0.006256	
-0.003815	0.009308	0.148470	0.010834	
-0.005341	0.007782	0.078889	0.006256	
-0.007782	0.004425	0.043489	0.001068	
-0.009613	0.005646	0.016022	0.000458	
-0.011139	0.002289	0.034333	-0.000153	
-0.014801	0.003815	0.028534	-0.001984	
-0.016327	0.001678	0.002289	0.002594	
-0.014191	0.002594	0.017853	0.012970	
-0.014801	-0.002899	-0.011139	0.003815	
-0.005035	0.004120	-0.106661	0.001984	
-0.009918	0.000763	-0.225986	-0.005646	
-0.006256	0.005951	-0.172580	-0.003510	
-0.005341	0.001984	-0.082856	-0.009918	
0.000458	0.009003	-0.031587	-0.003815	
-0.005035	0.004120	-0.019989	-0.013580	
0.004120	0.008087	0.130465	-0.007477	
0.005035	0.003204	0.246738	-0.011139	
0.003204	0.001068	0.065766	-0.009308	
-0.001984	-0.000763	0.092622	-0.009308	
-0.001373	-0.007477	0.095369	-0.016327	
0.003204	-0.000153	0.054780	-0.010223	
-0.009003	-0.007477	-0.003815	-0.023651	
-0.021210	-0.001984	-0.016937	-0.019684	
-0.034028	-0.003204	-0.009918	-0.019073	
-0.023956	0.001678	0.006256	-0.017853	
-0.016022	-0.006256	0.092927	-0.021515	
0.004730	0.004120	0.121309	-0.009003	
0.003815	0.000458	0.065766	-0.016327	
0.010223	0.000458	0.069123	-0.011444	
0.006256	-0.001068	0.037385	-0.006866	
0.008087	0.011139	-0.023346	0.000458	
-0.001678	0.008392	-0.059968	-0.006866	
-0.007477	0.004730	-0.052033	-0.004120	
-0.009308	0.006561	-0.077973	-0.009308	
-0.008087	0.010223	-0.143587	-0.015411	
0.000458	0.007782	-0.230259	-0.015411	
0.022430	0.008087	-0.268711	-0.012970	
0.071259	0.009003	-0.027313	-0.008087	
0.056611	0.005646	0.290074	-0.005951	
0.012360	0.004730	0.124056	-0.007477	
0.027924	0.002289	-0.227512	-0.019073	
0.016327	0.008087	-0.122835	-0.019379	
-0.052339	0.009308	0.067903	-0.016632	
-0.083772	0.007172	0.117037	-0.005646	
-0.098116	0.000153	0.160678	-0.003204	
-0.082551	-0.005341	0.163424	0.006256	
-0.058137	-0.007782	0.122225	-0.001678	
-0.029144	-0.008087	0.040132	-0.013885	
0.020294	-0.012360	0.005035	-0.012970	
0.060884	-0.008392	-0.006866	-0.009918	
0.024872	-0.001984	-0.028534	-0.009918	
-0.025177	-0.002899	-0.035554	-0.009308	
-0.040437	0.004425	0.023346	-0.001984	
-0.034028	0.004425	0.100863	-0.005341	
-0.001984	0.005951	0.070039	-0.001373	
0.036775	0.003815	0.048676	-0.001678	
0.054170	0.010223	0.033418	0.008698	
0.031281	0.006561	-0.308995	0.001678	
0.010529	0.016022	-0.347448	0.005341	
-0.007477	0.006561	-0.067903	0.005951	
0.030365	0.012360	0.171664	0.010223	
0.009918	0.003815	0.119173	-0.008087	
-0.013275	0.003204	0.179904	-0.002899	
-0.031281	-0.000153	0.123446	-0.009308	
-0.029755	0.002899	-0.030365	-0.002289	
-0.031281	0.000763	-0.018463	-0.001678	
-0.023956	0.005035	-0.006256	-0.001984	
-0.027008	-0.001068	-0.095064	-0.003815	
-0.024261	-0.003815	-0.093843	-0.002899	
-0.034028	-0.002899	0.044404	0.001984	
-0.057527	-0.004120	-0.065766	-0.002899	
-0.036469	-0.005341	0.157321	-0.001373	
0.009918	-0.001678	0.079194	-0.002899	
0.035249	-0.001678	0.036164	-0.008392	
0.025177	-0.008087	0.063630	-0.011139	
0.016937	0.002289	0.036469	-0.000153	
-0.000763	-0.003815	0.022430	-0.012054	
0.011139	-0.005341	0.020294	-0.005646	
0.030670	0.001984	0.021210	-0.002899	
0.015106	0.001678	0.011139	-0.005035	
-0.000153	-0.000763	0.005341	-0.004425	
-0.015106	0.002289	0.006866	0.000153	
-0.025482	0.000763	0.001984	-0.002899	
-0.021820	0.001678	0.023041	-0.005035	
-0.010223	0.001068	0.059358	-0.002899	
-0.031587	0.006866	0.050202	0.000153	
-0.050508	0.010529	0.009003	0.000153	
-0.029755	0.010529	-0.021210	0.003815	
-0.007172	0.012970	-0.011749	0.009918	
0.001984	0.004425	-0.021820	0.002594	
-0.001068	0.003815	-0.043183	0.003204	
-0.015411	-0.005035	-0.014191	-0.003510	
-0.010834	0.000763	0.004730	-0.000763	
-0.012970	-0.010834	-0.042268	-0.011749	
-0.011139	-0.005035	-0.058442	-0.003510	
-0.014801	0.000153	-0.074616	-0.007782	
0.010529	0.014801	-0.065766	-0.004120	
0.015717	0.007172	-0.056916	-0.013275	
0.044404	0.012360	-0.030365	-0.009308	
0.048066	0.015106	0.024567	-0.005646	
0.037690	0.007172	0.049592	0.000153	
0.021210	0.006256	0.025482	0.004425	
-0.001678	0.004425	-0.007477	-0.001984	
0.003204	0.000153	0.088960	-0.001984	
0.025787	0.011139	0.119783	0.000458	
0.044099	0.011749	0.036164	0.000153	
0.004730	0.001678	-0.012970	-0.005951	
-0.008087	0.000763	-0.014496	-0.005646	
0.053864	-0.001984	-0.031892	-0.007172	
0.029755	0.007782	-0.044709	-0.001373	
-0.023041	0.004120	-0.038606	-0.004120	
-0.037080	0.012970	-0.012970	0.001068	
-0.043794	0.009003	0.026398	-0.012970	
-0.034333	0.009308	0.150606	-0.015106	
-0.027008	0.009003	0.158237	-0.010529	
-0.042878	0.012970	0.117342	-0.010529	
-0.048066	0.006561	0.050202	-0.013580	
-0.033418	0.011749	-0.037690	-0.009003	
-0.052033	0.012970	-0.192416	-0.004120	
-0.035554	0.001984	-0.213168	-0.009918	
-0.011139	0.001984	-0.101168	-0.011749	
0.008087	0.009003	-0.044404	-0.013275	
0.013885	0.014496	0.049287	-0.019073	
-0.003815	0.010834	0.267185	-0.017548	
-0.017242	0.010223	0.358435	-0.010223	
0.028229	0.000458	0.249485	-0.022736	
0.088655	-0.005341	0.285802	-0.016327	
0.081025	-0.005035	0.104830	-0.019379	
0.063020	-0.003510	-0.040437	-0.013885	
-0.000153	-0.009308	-0.099031	-0.012970	
-0.045625	-0.005646	-0.199740	-0.013885	
-0.030975	-0.016937	-0.208591	-0.022125	
0.006866	-0.026398	-0.126497	-0.029449	
-0.005646	-0.019073	-0.051423	-0.025177	
-0.043183	-0.015411	-0.187228	-0.011749	
-0.077363	-0.005646	-0.073091	-0.000763	
-0.097506	-0.006256	-0.014191	0.010834	
-0.081635	-0.002289	0.178073	0.016632	
-0.052033	-0.006866	0.372778	0.016022	
-0.013885	-0.007782	0.075227	0.018768	
-0.019684	0.005035	-0.195163	-0.000153	
-0.037080	0.024872	-0.183871	-0.009918	
-0.057527	0.041047	-0.062715	-0.002899	
-0.045320	0.038911	-0.008392	0.006866	
0.012054	0.014801	0.061799	-0.003510	
0.163119	0.012970	0.177768	0.001678	
0.231480	0.002594	0.013275	-0.006866	
0.148470	0.007172	-0.008087	-0.005951	
0.031892	0.007782	-0.062104	-0.013885	
-0.055696	0.007782	-0.113070	-0.008087	
-0.077363	0.001984	-0.123140	-0.003510	
-0.047456	0.020294	-0.042268	-0.001984	
-0.006256	0.027313	-0.098116	-0.000763	
0.010223	0.009918	-0.188754	-0.009918	
0.011749	0.005951	-0.280613	-0.012054	
-0.005951	-0.008392	-0.332494	-0.011749	
-0.024872	-0.025787	-0.125277	-0.009613	
-0.009613	-0.031587	0.247349	-0.011444	
0.100557	-0.026398	0.089570	-0.009003	
0.227818	-0.021515	-0.015106	-0.013885	
0.186313	-0.009003	0.097811	-0.005035	
0.022430	-0.009613	0.493019	-0.011139	
-0.121309	0.000458	0.481422	-0.006866	
-0.167697	0.007172	0.117342	-0.010529	
-0.154268	0.024567	0.167087	-0.002899	
-0.137789	0.015106	0.074616	-0.004120	
-0.104219	0.018158	0.005951	0.002289	
-0.091401	0.020599	0.103304	-0.003204	
-0.103304	0.018463	-0.092622	-0.001373	
-0.090486	0.022430	-0.092927	-0.000763	
-0.048066	0.013885	-0.041352	-0.001984	
-0.007172	-0.002899	-0.051423	0.003815	
0.037995	-0.017548	-0.072175	0.001678	
0.120089	0.004120	-0.064851	0.005035	
0.131990	0.013275	0.026093	-0.001984	
0.098116	0.017242	0.197299	-0.004120	
-0.008087	0.017853	0.018768	-0.011749	
-0.082246	0.008392	0.043489	-0.009918	
-0.091096	-0.019073	0.125887	-0.011139	
-0.043794	-0.031587	0.064851	-0.007172	
-0.006866	-0.043794	0.024872	-0.016022	
0.010223	-0.029449	0.006256	-0.014191	
0.007172	-0.003510	-0.015106	-0.014191	
-0.023346	0.017242	-0.013580	-0.021210	
-0.039521	0.026398	0.051423	-0.020294	
-0.026093	0.026093	0.074006	-0.022125	
-0.001068	0.019989	-0.040437	-0.021210	
0.009613	0.007782	-0.132601	-0.022125	
0.020599	0.004425	-0.052644	-0.009918	
0.024567	-0.008087	-0.062715	-0.004425	
0.007782	-0.006866	-0.179904	-0.012970	
-0.011139	-0.001373	0.043489	-0.019073	
-0.007172	0.003815	0.120394	-0.019073	
-0.005035	0.000763	-0.189670	-0.022736	
0.013275	0.013885	-0.269932	-0.008392	
-0.001984	0.016937	-0.270237	-0.009918	
-0.011749	0.016022	-0.045625	-0.004425	
-0.002289	0.010223	-0.070954	-0.002289	
0.011749	0.004730	-0.003204	-0.004120	
0.001068	0.001678	0.126192	-0.005341	
0.012665	0.004425	0.273594	-0.001678	
0.012054	-0.002899	0.212253	-0.011139	
0.010223	-0.002899	0.090791	-0.011749	
0.013275	0.001678	0.047151	-0.009308	
0.004730	0.003204	0.044404	-0.004425	
0.011139	0.010834	0.046540	-0.001678	
0.025177	0.002899	0.000458	-0.005951	
0.027924	-0.001373	-0.005035	0.002289	
0.013275	-0.007782	0.005341	-0.005646	
0.015717	-0.011139	0.041352	-0.005951	
0.005035	-0.013275	0.006561	-0.011444	
0.004730	-0.000763	0.028534	-0.003204	
-0.005341	-0.006256	0.022736	-0.010223	
0.000458	-0.002289	0.002594	-0.009918	
-0.010223	-0.015106	0.005035	-0.014191	
-0.007782	0.001678	0.034333	-0.003815	
-0.009308	0.001678	0.015411	-0.012054	
-0.008087	0.006866	-0.023041	-0.009003	
-0.008087	0.010834	-0.086823	-0.009613	
0.003815	0.015106	0.005951	-0.002899	
0.004730	0.014801	0.161593	-0.001984	
0.000153	0.017853	0.101473	-0.012054	
-0.001984	0.022125	0.096285	-0.010529	
-0.014191	0.016022	0.234837	-0.013275	
-0.013580	0.012054	0.063630	-0.009003	
-0.019073	0.007172	-0.191501	-0.010223	
-0.018158	0.011749	-0.280003	0.000153	
-0.028839	-0.002899	-0.318456	0.000763	
-0.025177	0.000763	-0.186923	-0.006256	
-0.029449	-0.011139	-0.126192	-0.016327	
-0.020905	-0.013580	-0.164950	-0.004120	
-0.022430	-0.017853	0.076753	-0.012970	
-0.013580	-0.005951	0.055390	-0.011444	
-0.018158	-0.000763	0.261387	-0.008087	
-0.019073	0.007172	0.245518	-0.001984	
-0.021515	0.005035	0.187228	-0.007782	
-0.018158	0.008392	0.126192	-0.008392	
-0.012360	0.004425	-0.122225	-0.002899	
-0.012360	0.000763	-0.224461	0.002289	
-0.007477	0.007172	-0.194247	0.004120	
-0.005646	0.005951	-0.106661	-0.002899	
-0.004425	0.002594	0.121004	0.000458	
-0.005646	-0.012054	0.045320	-0.000763	
0.001984	-0.013885	0.022736	0.000458	
-0.003815	-0.009613	0.039216	-0.012970	
0.000763	-0.002289	0.117037	-0.011444	
-0.001068	-0.008392	0.121614	-0.011749	
0.027924	0.004730	-0.124056	-0.001984	
0.046540	0.002289	-0.279697	-0.007782	
0.074616	0.004120	-0.215610	0.001068	
0.106356	-0.011444	-0.158542	0.006256	
0.072175	-0.011139	0.061799	0.017548	
-0.013275	-0.012054	0.621500	0.010529	
-0.078584	0.003204	0.661479	-0.001373	
-0.107271	0.023956	0.000763	-0.015106	
-0.102694	0.001984	0.047456	-0.017242	
-0.078584	-0.000153	0.112459	-0.001678	
-0.084382	-0.008087	0.069428	-0.009613	
-0.088044	-0.006866	-0.019684	-0.006256	
-0.081025	-0.016327	0.038606	-0.001678	
-0.048066	-0.011139	0.144197	0.000153	
-0.009308	-0.012970	0.134127	-0.008392	
0.039216	0.015717	0.174106	-0.005035	
0.027924	0.050202	0.170138	-0.002899	
0.020905	0.071259	-0.093232	0.011139	
0.001984	0.062409	-0.098116	-0.001678	
0.036775	0.048066	-0.014191	0.002289	
0.088960	0.004425	-0.240940	-0.001678	
0.137178	-0.003204	-0.293431	-0.002899	
0.095980	-0.001068	-0.228428	-0.000763	
0.027008	-0.006866	-0.089875	0.005035	
-0.016327	-0.007782	0.006561	-0.000153	
0.011139	0.008392	0.036775	-0.009613	
0.102694	0.021820	-0.067903	-0.004120	
0.094149	0.006256	-0.193027	-0.005646	
0.001068	0.031281	-0.048371	-0.001678	
-0.105440	0.030670	-0.068818	-0.013885	
-0.120394	0.032502	-0.180820	-0.005035	
-0.097200	0.020294	0.001678	-0.003204	
-0.069734	0.016022	0.148165	-0.002899	
-0.085603	-0.011749	0.102083	-0.012054	
-0.097200	-0.053254	0.151827	-0.005646	
-0.058442	-0.086823	0.274815	-0.007172	
0.000153	-0.072785	-0.006866	0.000458	
0.031281	-0.051423	0.071870	0.012665	
0.030670	-0.028229	0.028839	0.018463	
0.030670	0.005646	-0.236057	0.002899	
0.034333	0.059052	-0.315709	0.005035	
0.040132	0.056306	-0.288243	0.005035	
0.061799	0.020905	-0.334935	-0.000153	
0.071259	0.033113	-0.256199	0.002899	
0.029144	0.021210	0.012665	0.001068	
-0.012360	0.002289	-0.103914	0.008698	
-0.039521	-0.031281	0.046540	0.010223	
-0.046540	-0.073396	0.389257	0.012970	
-0.000153	-0.065461	0.164340	0.008392	
0.019989	-0.041047	0.098116	0.008698	
-0.010223	-0.001373	0.555581	0.010223	
-0.081941	0.051423	0.516518	0.004730	
-0.117342	0.032502	0.229649	-0.014496	
-0.094454	0.008698	0.184482	-0.001984	
-0.063020	-0.001068	0.200351	0.000153	
-0.034028	-0.012360	0.050813	-0.010223	
-0.037385	0.016327	0.048371	-0.031892	
-0.016022	0.060578	0.112154	-0.048371	
0.066072	0.067597	0.243382	-0.046235	
0.130465	0.073396	0.175937	-0.048982	
0.123446	0.091401	0.031587	-0.041657	
0.036469	0.068818	-0.213778	-0.038606	
-0.043489	0.023346	-0.028534	-0.033418	
-0.083161	-0.037080	-0.152742	-0.051728	
-0.027618	-0.037995	-0.440833	-0.045930	
-0.005646	-0.045930	-0.255894	-0.049592	
-0.009003	-0.052644	-0.119173	-0.042878	
-0.030365	-0.044404	0.054780	-0.040437	
-0.039216	-0.012054	-0.059358	-0.044404	
0.020599	0.011139	0.077973	-0.045014	
0.088655	0.059968	0.032502	-0.031587	
0.073396	0.057527	0.007172	-0.028229	
0.081025	0.036164	0.013885	-0.017548	
0.053254	0.008392	-0.204318	-0.014191	
0.016632	-0.021515	-0.286107	-0.005646	
0.008087	-0.051728	-0.293126	-0.001373	
0.005951	-0.081330	-0.272678	-0.000763	
0.001678	-0.062715	0.088655	-0.001984	
0.001678	-0.035859	-0.014191	-0.014496	
-0.001984	-0.020905	-0.310826	-0.015106	
-0.032197	0.001984	-0.092317	-0.015106	
-0.075227	0.043489	0.125277	0.002594	
-0.069123	0.041963	-0.085908	0.014496	
0.014801	0.032807	0.218661	0.033113	
0.028534	0.030365	0.369726	0.032807	
0.012360	0.046235	0.356909	0.038301	
-0.059663	0.036164	0.645304	0.028534	
-0.077058	0.027008	0.379797	0.031281	
-0.058137	0.029144	0.171054	0.032197	
-0.049897	0.024567	-0.025787	0.039826	
-0.034028	0.020905	-0.173495	0.040742	
-0.005646	0.004425	-0.386206	0.038911	
0.013275	0.005951	-0.277866	0.037080	
0.051118	0.007782	-0.088349	0.022430	
0.078279	0.003204	-0.125277	0.021515	
0.042268	-0.027924	-0.050202	0.014496	
-0.006256	-0.005646	-0.095980	0.020905	
-0.039216	0.005646	-0.088960	0.020294	
-0.002899	0.014496	-0.008392	0.036775	
0.023041	-0.012360	-0.086823	0.025482	
0.081025	-0.032502	-0.272068	0.025177	
0.117342	-0.051423	0.082856	0.015411	
0.087434	-0.065461	0.030060	0.009003	
0.024261	-0.056306	-0.271763	-0.001678	
-0.033113	-0.034944	0.022125	-0.009613	
0.024261	-0.023956	0.234226	-0.013885	
0.098726	0.050813	0.044404	-0.005341	
0.056001	0.089265	0.010834	-0.000763	
-0.002289	0.073396	0.099031	-0.005951	
-0.048371	0.029144	0.033113	-0.026703	
-0.027618	-0.032197	0.180514	-0.028229	
-0.002899	-0.066377	0.260471	-0.028534	
-0.025177	-0.070649	0.115206	-0.021820	
-0.073396	-0.022430	0.302281	-0.013885	
-0.137178	-0.003815	0.116426	-0.010223	
-0.107882	0.023041	-0.246738	0.002594	
0.013885	0.035249	-0.240025	-0.013580	
0.054780	0.043183	0.066682	-0.005951	
-0.027618	0.026703	0.123140	-0.004120	
-0.060578	0.020294	0.048982	0.005951	
-0.088044	0.005646	0.099947	0.002289	
-0.107271	0.017242	0.063935	0.005035	
-0.103914	0.010529	0.028534	0.007172	
-0.082551	-0.005951	-0.036469	0.008698	
-0.055696	-0.011139	-0.038301	0.008392	
-0.031587	-0.009918	-0.049287	0.002899	
-0.017548	-0.009308	-0.029755	0.008087	
-0.027008	-0.014801	-0.035859	0.002289	
-0.025787	-0.027008	-0.029755	0.000763	
0.010223	-0.010834	-0.012054	-0.000763	
0.086518	0.002289	-0.009918	-0.001984	
0.038606	-0.007782	-0.010223	-0.008087	
-0.021515	0.007782	0.019073	-0.008087	
-0.048066	0.012360	0.023041	-0.011749	
-0.052949	0.030060	0.013885	-0.011749	
-0.049897	0.020599	0.005341	-0.022125	
-0.007477	0.023041	0.017853	-0.010529	
0.012054	0.019989	0.004120	-0.026398	
0.010529	0.023956	0.007172	-0.019379	
0.001068	0.017853	0.011139	-0.019073	
0.006256	0.017242	0.008392	-0.022125	
0.019073	0.015717	0.010834	-0.016022	
0.025787	0.006256	0.008392	-0.014496	
0.030975	-0.001373	0.014191	-0.014496	
0.026093	-0.020905	0.008698	-0.015717	
0.027313	-0.020294	0.011139	-0.010223	
0.024872	0.000153	0.006561	-0.014191	
0.040132	0.011139	0.008087	-0.007172	
0.032807	-0.000153	-0.001068	-0.013275	
0.019073	0.006866	0.003815	-0.005951	
0.001068	0.003815	-0.001373	-0.011749	
-0.006866	0.007782	0.004120	-0.006256	
-0.031281	0.008392	-0.001373	-0.009308	
-0.019379	0.023041	0.005035	-0.015717	
-0.005341	0.020905	0.001984	-0.025177	
0.013885	0.027313	0.005341	-0.009308	
0.004425	0.022736	0.005341	-0.024261	
-0.005646	0.019989	0.005951	-0.026398	
-0.026093	0.010834	0.011749	-0.022125	
-0.029144	-0.008087	0.009918	-0.021820	
0.010529	-0.007782	0.018768	-0.023346	
0.038911	-0.016937	0.016327	-0.028839	
0.036469	-0.027313	0.021210	-0.024261	
0.014191	-0.028534	0.020599	-0.028839	
0.003815	-0.012054	0.024261	-0.022430	
-0.016937	-0.003510	0.016022	-0.026398	
-0.005035	0.004425	0.026398	-0.018463	
-0.021820	0.000153	0.023041	-0.020599	
-0.026093	0.001678	0.019073	-0.019989	
-0.029449	-0.005646	0.029144	-0.023651	
-0.006866	0.002899	0.062409	-0.011444	
0.012665	-0.000763	0.070954	-0.012054	
0.005035	0.008087	0.063020	-0.008392	
-0.014801	0.015106	0.086823	-0.023346	
-0.029449	0.011749	0.077973	-0.028534	
-0.045320	0.000763	0.044404	-0.022125	
-0.047151	-0.011139	-0.131380	-0.016022	
-0.043794	-0.028229	-0.225986	-0.009918	
-0.032502	-0.036469	-0.028534	-0.005035	
-0.013580	-0.030060	-0.178988	-0.009308	
-0.013275	-0.018158	-0.151522	-0.013275	
-0.017242	0.002289	0.050508	-0.011444	
-0.016022	0.019989	0.117037	-0.017548	
-0.000153	0.032502	0.051728	-0.012970	
0.007782	0.036775	0.029449	-0.020599	
0.009003	0.026398	0.038911	-0.012970	
-0.004120	0.011139	0.033113	-0.016632	
-0.005951	0.013885	0.038911	-0.010223	
-0.016327	0.013885	0.030670	-0.011444	
-0.005646	0.020599	0.030060	-0.003510	
0.016327	0.007782	0.030060	-0.000763	
0.046540	0.009003	0.024567	-0.000153	
0.054475	0.008698	0.030670	-0.007477	
0.037080	0.005951	0.034028	0.001068	
0.028229	0.008698	0.023041	0.003204	
0.018158	0.007172	0.015411	0.000153	
-0.005035	0.008087	0.016327	0.011139	
-0.011444	0.000763	0.006256	0.006256	
0.016632	0.005951	0.015411	0.014191	
0.035249	0.004730	0.010529	0.011444	
0.045930	0.004120	0.006866	0.015411	
0.038911	-0.000763	0.002594	0.005951	
0.042878	0.004120	0.005341	0.004730	
0.034944	0.000458	0.002289	0.005951	
0.022736	0.004120	0.002289	0.002899	
0.009613	0.004425	0.006561	0.003204	
0.000458	0.003815	0.004425	0.002594	
0.012054	0.004425	0.006866	0.011139	
0.032807	0.002289	0.004730	0.017242	
0.016937	0.004730	0.004120	0.019379	
-0.010834	0.014496	0.004120	0.009918	
-0.035249	0.010834	0.001984	0.011139	
-0.059663	0.010223	-0.001678	-0.005646	
-0.074311	0.002289	0.001678	-0.026398	
-0.087434	-0.006866	0.004120	-0.005035	
-0.063630	-0.016022	0.010529	0.012360	
-0.041657	-0.029449	0.000458	0.004120	
-0.034944	-0.035859	0.005951	0.014191	
-0.044099	-0.050202	0.000458	0.005035	
-0.033723	-0.030365	0.001984	0.002594	
-0.015106	-0.009918	-0.001068	-0.002899	
0.005951	0.004425	0.003204	-0.005646	
0.018768	0.007782	0.004730	-0.016632	
0.034944	0.012054	0.006866	-0.007477	
0.026703	0.007172	0.016022	0.006561	
0.004730	0.010529	0.014801	0.001678	
0.004730	0.012970	0.010529	0.002289	
0.002899	0.010223	0.004425	0.000153	
0.002594	0.014801	0.011139	-0.000763	
-0.007782	0.007782	0.002289	-0.008392	
-0.004425	0.012970	0.008698	-0.002899	
0.010529	0.007172	0.002594	-0.009308	
0.007782	0.012970	0.005035	-0.001984	
-0.035554	0.004120	0.001984	-0.001373	
-0.030365	0.002289	0.006256	0.005341	
-0.017242	0.005035	0.005951	0.002594	
-0.005341	0.019073	0.012360	0.004120	
-0.009918	0.011139	0.004120	-0.002289	
-0.002289	0.014496	0.004120	0.012054	
-0.001068	0.005646	0.001984	0.008698	
0.004120	0.011139	0.002899	0.000153	
-0.001678	0.010529	0.004730	-0.013275	
-0.005035	0.004425	-0.000153	-0.011444	
-0.008087	-0.006256	0.001984	-0.012970	
-0.030060	-0.016327	0.004120	0.001678	
-0.058442	-0.015106	0.003815	-0.000763	
-0.074006	-0.003204	-0.001678	-0.017548	
-0.016327	0.008087	0.007172	-0.000763	
0.031281	0.007782	0.004425	0.005951	
0.030060	0.018463	0.011749	-0.000763	
0.012360	0.010223	0.007172	-0.008392	
0.002289	0.012054	0.009918	0.008087	
-0.009613	0.000458	0.002899	0.002899	
-0.019379	-0.006866	0.005341	-0.021515	
-0.012054	-0.012054	0.009918	-0.014191	
-0.005341	-0.000153	0.011749	-0.015717	
-0.022430	-0.003204	0.024872	-0.005646	
-0.023346	-0.007172	0.024261	-0.003815	
-0.028229	-0.012360	0.019073	-0.016632	
-0.026093	-0.001984	0.030060	-0.014191	
-0.023041	0.002289	0.019989	-0.013275	
-0.003204	0.002899	0.022125	-0.011444	
0.015717	0.000763	0.020294	-0.013275	
0.026398	0.002899	0.012054	-0.017548	
0.036775	0.009308	0.011749	-0.015106	
0.027924	0.004120	0.008392	-0.009918	
0.010529	0.016327	0.013275	-0.013580	
-0.006866	0.007782	0.006256	-0.029755	
-0.011139	0.005646	0.012054	-0.019379	
-0.028839	-0.021210	0.001984	-0.023651	
-0.022430	-0.016022	0.010529	0.000153	
-0.023651	0.006866	0.007172	-0.002899	
-0.003204	0.024872	0.002899	-0.006866	
0.001068	0.030060	-0.000153	-0.013275	
-0.023651	0.045320	0.006256	-0.004120	
-0.021820	0.052033	0.006866	0.003204	
0.020905	0.054170	0.006561	-0.007172	
0.024872	0.037995	0.012970	-0.027924	
0.016327	0.016632	0.003204	-0.041657	
-0.001984	0.010529	0.004425	-0.029449	
-0.022430	-0.007477	0.004730	-0.012360	
-0.023041	-0.030060	0.007172	-0.011749	
-0.032502	-0.058137	0.014801	-0.012970	
-0.027618	-0.056001	0.034944	-0.007172	
-0.006866	-0.041657	0.022125	-0.006866	
0.009613	-0.027008	0.018768	-0.011749	
0.001068	-0.023041	0.008698	0.002289	
0.011749	-0.023041	-0.002289	0.001068	
0.022125	-0.014801	-0.001678	-0.001984	
0.011139	0.001678	0.004730	0.006561	
-0.003204	-0.000763	0.000153	-0.006256	
0.004425	0.011749	-0.001373	-0.001678	
0.003815	0.016022	0.004425	-0.005341	
0.003204	0.007172	0.004120	-0.000763	
0.009613	0.003815	0.005951	0.026093	
0.006256	0.003204	0.002594	0.012665	
0.002594	0.012970	0.002289	-0.032502	
-0.003510	0.007782	-0.003815	-0.057832	
0.001068	0.008087	0.002899	-0.034944	
-0.005951	0.000153	-0.003510	-0.023346	
-0.008087	0.003815	0.011139	0.001068	
-0.016937	-0.001068	0.006866	-0.009613	
-0.014801	0.010529	0.008698	-0.012054	
-0.018158	0.004730	0.007172	-0.022736	
-0.009308	0.003815	0.012665	0.017548	
-0.013580	0.000763	0.012665	0.005341	
-0.001984	0.010223	0.016327	-0.002899	
-0.006866	0.007782	0.005341	-0.007172	
-0.003815	0.014496	0.010834	0.006561	
-0.005646	0.007172	0.006866	0.006561	
-0.005951	0.004425	0.009003	0.005341	
-0.006256	0.010223	0.020294	0.008698	
-0.003510	0.008392	0.013885	0.006866	
-0.000153	0.011139	0.012665	0.006561	
-0.006866	0.007172	0.009003	0.003815	
-0.006256	0.010529	0.014191	0.001678	
-0.008392	0.004425	0.006561	-0.006866	
-0.001373	0.004730	0.011139	0.009308	
-0.005646	0.003815	0.006256	0.010223	
0.003204	0.006256	0.012970	0.000763	
-0.002289	0.001678	0.011749	-0.011444	
-0.005341	0.006561	0.010529	-0.017853	
-0.010834	0.002289	0.010529	0.005035	
-0.008087	0.009003	0.014496	0.010223	
-0.012970	0.005035	0.011139	0.000458	
-0.011139	0.002289	0.010529	-0.003510	
-0.007477	0.000458	0.005341	-0.008392	
-0.003510	0.000153	0.002899	-0.016327	
-0.002289	0.001678	0.004120	-0.001678	
-0.008087	0.000458	-0.001678	0.002594	
-0.006256	0.002899	-0.002899	-0.009918	
-0.008392	0.004730	-0.001068	-0.013275	
-0.003815	0.005035	0.010223	-0.019989	
-0.004425	0.003204	0.014801	0.019379	
0.000153	0.009003	0.024872	0.038606	
-0.001678	0.001984	0.019073	0.029755	
0.001984	0.007782	0.010529	-0.001373	
0.005646	0.007172	0.003204	-0.078279	
0.002289	0.003815	0.001984	-0.059358	
0.000763	-0.001984	0.013275	-0.019989	
0.009003	0.003815	0.016937	-0.020294	
0.000458	0.001984	0.011139	-0.022125	
0.000458	0.005035	0.007172	-0.001678	
0.000458	0.002899	0.007172	0.025177	
-0.003815	0.002594	0.000153	-0.027924	
-0.005341	0.016327	-0.001373	-0.018463	
-0.016022	0.013275	-0.003204	0.006866	
-0.002289	0.026703	0.014496	0.045930	
-0.008087	0.015106	0.005341	0.028229	
-0.006866	0.012970	0.002899	0.005341	
0.005646	0.004425	-0.004425	-0.040742	
0.028839	0.005035	0.010529	-0.006866	
0.012970	-0.005035	0.001678	0.002289	
0.004730	-0.012970	-0.000763	0.022430	
-0.011139	-0.025482	0.000763	0.018463	
-0.010223	-0.016327	0.014496	0.009308	
-0.015411	-0.001373	0.010834	-0.007172	
-0.015411	0.012360	0.010834	-0.045014	
-0.021210	-0.005035	0.002899	-0.034028	
-0.021210	-0.005951	0.009918	-0.022125	
-0.024872	-0.002289	0.014191	-0.020294	
-0.011749	-0.003204	0.013275	0.008087	
-0.003510	-0.005341	0.010223	-0.005035	
0.003815	0.002899	0.002899	-0.025787	
0.008392	0.008392	0.004730	-0.026093	
0.005035	0.004425	0.005951	-0.005951	
0.013885	0.009308	0.016937	-0.000763	
0.005646	0.005035	0.015411	0.004425	
0.005035	0.009308	0.017853	0.029144	
-0.003815	0.002899	0.009918	-0.001984	
-0.009613	0.013275	0.012054	-0.026398	
-0.020905	0.006561	0.004730	-0.037690	
-0.017548	0.011749	0.012360	-0.013580	
-0.016327	0.008392	0.006256	-0.022736	
-0.026093	0.000763	0.011749	-0.022736	
-0.024872	-0.000153	0.010529	-0.039826	
-0.016327	-0.005341	0.011749	-0.034333	
-0.009003	-0.005035	0.016022	-0.029449	
-0.002289	0.004425	0.007782	-0.019073	
-0.000763	0.000153	0.005035	0.003815	
-0.000153	0.003815	0.007782	0.023651	
0.003815	0.008087	0.014496	0.049592	
-0.001068	0.002594	0.012665	0.067292	
0.003204	0.001678	0.009003	0.021515	
-0.001984	-0.010834	0.004425	-0.012360	
0.005646	-0.002899	0.014191	0.005035	
0.002289	-0.005035	0.004120	0.004425	
0.005035	-0.001984	0.010223	-0.003510	
-0.003510	-0.008392	0.004730	-0.022736	
-0.003815	-0.002289	0.004120	-0.032807	
-0.013885	-0.008087	0.006561	-0.049592	
-0.023346	-0.003204	0.013275	-0.034944	
-0.027924	-0.003204	0.005035	-0.028534	
-0.015106	0.003204	0.004730	0.023651	
-0.009613	-0.001373	-0.002899	0.078279	
-0.011444	0.004425	-0.002899	0.078279	
0.004120	0.016327	0.007782	0.013885	
0.022736	0.011139	-0.004425	-0.014496	
0.033723	0.012360	0.009918	0.005341	
0.016327	0.005951	0.007172	-0.010223	
0.008698	0.014496	0.010529	-0.038606	
0.005646	0.007782	0.004730	-0.042573	
0.008392	0.009308	0.012665	-0.042268	
-0.008087	0.000458	0.004425	-0.011444	
-0.005035	-0.000153	0.009308	0.026703	
-0.005646	-0.011139	0.005341	-0.046540	
-0.005035	-0.012360	0.015411	-0.079194	
-0.007172	-0.014191	0.018158	-0.120089	
-0.013275	-0.006256	0.011139	-0.117037	
-0.010223	0.002289	0.012665	-0.098421	
-0.009613	0.001984	0.004120	-0.140535	
-0.012054	0.003815	0.008698	-0.200961	
-0.008087	0.012054	0.011749	-0.153658	
-0.008087	0.012970	0.007782	0.094759	
-0.009613	0.014496	0.017242	0.249485	
-0.009613	0.016022	0.027008	0.236973	
-0.010223	0.009308	0.016937	0.171969	
-0.003815	0.010529	0.011749	0.186007	
-0.009613	0.002594	-0.005341	0.077363	
-0.009613	0.012054	0.002594	-0.007782	
-0.011444	0.003815	0.007782	0.018768	
-0.007782	0.010223	0.010529	0.060884	
-0.011139	0.006561	0.005341	0.097811	
-0.000153	0.011749	0.018158	0.086518	
-0.005646	0.002899	0.022125	0.068513	
-0.002289	0.009003	0.022430	0.049897	
-0.007782	0.003204	0.005341	-0.007172	
-0.009308	0.005951	0.004730	-0.063935	
-0.008087	0.007782	0.005341	-0.088960	
-0.013580	-0.001068	0.001984	-0.052949	
-0.006256	0.004730	0.005951	-0.052949	
-0.010834	-0.000153	-0.002289	-0.106661	
-0.005341	0.000458	0.005951	-0.130465	
-0.010223	-0.002899	-0.001984	-0.186007	
-0.002289	0.004425	0.004425	-0.217746	
-0.005341	0.000763	-0.008392	-0.241550	
-0.002899	0.002289	-0.008087	-0.179904	
-0.001068	0.000153	0.001984	-0.009003	
0.003204	0.006561	0.013275	0.159152	
-0.003510	-0.001678	0.014191	0.067292	
0.001984	0.001984	0.020294	0.051423	
-0.002899	0.001678	0.016022	0.171969	
0.000763	0.004730	0.010223	0.267185	
-0.004425	-0.002289	0.004425	0.195163	
-0.002289	-0.000763	0.000763	0.086518	
-0.005341	0.002899	-0.001068	0.008392	
-0.001678	0.004425	0.003204	-0.018158	
0.003204	0.010529	0.013275	0.016022	
-0.002899	0.003815	-0.000153	0.011444	
0.007782	0.004730	0.006561	-0.017242	
-0.000153	-0.002899	0.005951	-0.030670	
0.003815	0.001678	0.008392	-0.028534	
-0.003204	-0.008087	0.001068	-0.058137	
-0.001068	-0.001373	0.008392	-0.055696	
-0.002899	-0.004120	0.004425	-0.157626	
-0.000763	0.001068	0.007172	-0.257725	
-0.005951	0.003204	0.008392	-0.293126	
-0.013885	0.009308	0.012970	-0.160983	
-0.027618	0.013275	0.018768	-0.125277	
-0.027924	0.006256	0.018158	-0.223240	
-0.018158	-0.001984	0.021210	-0.233311	
-0.003815	0.002594	0.017242	-0.068818	
-0.002289	-0.005341	0.010223	0.102388	
-0.000763	-0.003510	0.017242	0.102694	
0.006256	0.005035	0.023041	0.193637	
0.006866	-0.003510	0.009003	0.179904	
0.009003	0.004120	0.012665	0.181125	
0.003204	0.002289	0.016327	0.167392	
-0.003510	0.005035	0.026703	0.189670	
-0.011444	0.001678	0.014496	0.252537	
-0.001373	0.009003	0.010223	0.154573	
-0.008392	0.000458	-0.004425	0.028839	
-0.003815	0.002899	0.006866	-0.044709	
-0.008392	-0.001373	0.022125	-0.027313	
-0.001068	0.008698	0.030365	-0.081025	
-0.005646	0.002899	0.011749	-0.203403	
-0.005646	0.004120	0.002899	-0.206759	
-0.004120	0.002289	0.000153	-0.056001	
-0.005035	-0.003815	-0.001373	0.193027	
-0.007477	-0.005646	0.007172	0.266575	
-0.007782	-0.005646	0.000458	0.267796	
-0.001068	0.000763	-0.005341	0.198215	
-0.009308	-0.002289	-0.018158	0.132296	
0.000458	0.005951	-0.014191	0.160068	
-0.003510	0.004120	-0.036469	0.123140	
0.001984	0.005646	-0.037385	-0.046235	
-0.005341	0.004120	-0.015106	-0.182040	
-0.001678	0.006256	0.011139	-0.150911	
-0.005035	-0.003204	0.033418	-0.231785	
-0.002289	0.004120	0.048676	-0.220188	
-0.003204	0.002289	0.023041	-0.100863	
-0.001678	0.006866	0.016327	0.078584	
-0.002289	0.009003	0.008698	-0.017853	
0.000153	0.010223	0.016937	-0.172580	
-0.010223	0.001678	0.033113	-0.091706	
-0.005035	0.001984	0.028839	-0.037690	
0.001068	0.006256	0.034333	-0.018463	
0.002594	0.010529	0.023956	-0.002289	
0.001984	0.006256	0.004120	-0.043489	
0.000458	0.004730	-0.004425	-0.079194	
-0.002289	0.011749	0.001984	-0.139620	
-0.005951	0.008087	0.010223	-0.152742	
0.001068	0.012970	0.028839	-0.062715	
-0.001984	0.012970	0.030060	-0.048066	
0.001068	0.012360	0.016022	-0.000153	
0.000153	0.008698	-0.007477	0.008698	
-0.000153	0.007172	-0.016022	0.036775	
-0.003510	0.000153	-0.019989	0.052033	
0.001984	0.004425	-0.012970	-0.007477	
-0.002899	0.001984	-0.014191	-0.074616	
-0.007172	0.004120	-0.019989	-0.139925	
-0.005951	0.001984	-0.006256	-0.166781	
-0.005951	0.002289	-0.004425	-0.240025	
-0.005035	0.004120	0.018768	-0.203708	
-0.004425	0.000763	0.059663	0.175326	
-0.006866	0.000458	0.052339	0.259556	
-0.011139	-0.001984	0.027313	0.242161	
-0.007782	0.000458	0.005035	0.392614	
-0.011139	0.001678	-0.011139	0.403601	
-0.009003	0.008392	-0.023346	0.128633	
-0.018158	-0.001984	-0.016937	-0.092317	
-0.009308	0.005035	0.013275	-0.311437	
-0.013885	-0.000153	0.002899	-0.428321	
-0.007782	0.004120	0.018768	-0.275730	
-0.009308	-0.002289	0.038606	-0.033418	
-0.009308	0.001678	0.041352	0.171664	
-0.012360	0.001068	0.034944	0.081635	
-0.009308	0.002289	0.017853	0.124056	
-0.013275	0.004425	0.009003	-0.037385	
-0.010223	0.002289	0.006561	-0.219578	
-0.005341	0.003815	0.018463	-0.175937	
-0.015411	0.003204	0.005951	-0.128939	
-0.005341	0.007172	0.022125	0.259556	
-0.001678	0.002594	-0.000763	0.322728	
-0.001373	0.006256	-0.009918	0.120089	
-0.005646	0.001678	-0.017853	0.290990	
0.001678	0.008392	-0.009308	0.355993	
0.000153	0.005035	0.019379	-0.059358	
-0.001068	0.002289	0.046235	-0.286717	
-0.002899	0.000153	0.033113	-0.312657	
0.002594	0.003204	0.016937	-0.200351	
-0.001373	0.000458	0.006256	-0.060884	
-0.001068	-0.001068	0.012054	0.233006	
-0.001373	-0.000763	0.010529	0.529335	
-0.005646	0.000458	0.012054	0.293126	
-0.002289	-0.000153	0.012665	0.108492	
-0.001068	0.002289	0.004425	0.180209	
0.000763	0.004120	0.010834	0.196078	
0.002594	0.002899	0.011749	0.095980	
0.005951	0.008087	0.003204	-0.063935	
0.002594	0.005646	-0.007782	-0.082551	
0.006866	0.008698	-0.005341	-0.126192	
0.000458	0.001984	-0.012054	-0.204623	
0.000153	-0.001068	-0.002899	-0.274815	
-0.001068	-0.001068	-0.001068	-0.293431	
0.000153	0.004120	0.007782	-0.243687	
-0.006256	-0.001984	0.012970	-0.146029	
-0.005951	0.003815	0.017242	0.019379	
-0.006256	0.001678	0.014191	0.129549	
-0.005951	0.003204	0.005035	0.064240	
-0.008087	0.002289	0.000153	-0.079499	
-0.003204	0.006561	0.001068	-0.120394	
-0.002289	0.005646	0.001984	-0.112154	
-0.003510	0.000458	0.001678	-0.115816	
-0.002289	0.006256	0.005951	-0.129854	
-0.009613	0.002899	0.004120	-0.082551	
-0.003815	0.002594	0.012665	0.043183	
-0.008087	0.005035	-0.009308	0.066377	
-0.006256	0.008698	-0.009003	0.020599	
-0.009613	0.004120	-0.004425	0.023346	
-0.003204	0.011139	0.010223	0.019379	
-0.005646	0.009918	0.012970	0.097506	
-0.005341	0.011139	0.005951	0.014191	
-0.008087	-0.000763	0.016327	-0.143892	
-0.005035	0.007782	0.046235	-0.009003	
-0.003815	0.010223	0.039216	0.051118	
0.000153	0.009003	0.026398	-0.021515	
-0.006256	0.008087	0.030975	-0.053254	
-0.008087	0.007782	0.028839	-0.045625	
-0.008392	0.004425	0.024261	-0.007172	
-0.016937	0.001678	0.013885	0.002289	
-0.009613	0.007782	0.007782	0.004120	
-0.016022	-0.001373	0.004120	0.005951	
-0.015411	0.000458	0.005951	0.002899	
-0.021515	-0.002899	-0.001068	-0.004120	
-0.013885	0.002594	0.002289	0.003815	
-0.016937	-0.003510	-0.007172	-0.003510	
-0.008392	0.004425	0.000458	0.003204	
-0.005951	-0.001068	0.000763	-0.000763	
0.000458	0.003204	0.005341	0.005035	
-0.005951	-0.002289	-0.001068	-0.000153	
-0.001068	0.000458	0.000458	0.001984	
-0.001678	-0.002289	0.000153	0.000763	
0.000458	0.003204	-0.001678	0.008698	
0.002594	0.002289	0.003815	0.008698	
0.001068	-0.000763	0.002899	0.008698	
-0.002899	0.000458	0.003815	0.005035	
0.002289	0.004120	0.006561	0.006561	
-0.001373	0.001678	0.009308	0.008392	
0.002594	0.003204	0.013275	0.009918	
0.005646	0.007172	0.013885	0.010529	
0.005646	0.005035	0.003204	0.000763	
0.009918	0.009003	0.007782	0.003815	
0.002289	0.006256	0.006866	0.000458	
0.007172	0.010834	0.017242	0.001984	
0.000458	0.000153	0.009918	-0.005341	
0.004730	0.001984	0.012665	-0.002289	
0.005035	0.001068	0.015411	-0.001678	
0.005646	0.003204	0.010529	-0.003510	
-0.001068	-0.000153	0.010529	-0.009308	
-0.003204	0.000153	0.014801	-0.006256	
-0.006866	-0.005035	0.010529	-0.007477	
-0.007172	-0.001373	0.011749	-0.005035	
-0.007477	0.003204	0.014191	0.002899	
-0.010223	0.000153	0.009918	-0.005951	
-0.011749	-0.000763	0.010223	-0.006866	
-0.016022	0.001984	0.005341	-0.007782	
-0.009308	0.006256	0.003204	-0.012360	
-0.014801	0.001678	-0.002899	-0.007477	
-0.016937	0.002289	0.004425	-0.001068	
-0.010223	-0.000763	0.000458	-0.010223	
-0.003815	-0.000763	0.005951	-0.005646	
-0.012360	-0.004120	0.000153	-0.009003	
-0.002289	0.004425	0.010529	0.000153	
-0.008087	-0.004120	0.002289	-0.009003	
-0.005341	-0.001373	0.001068	-0.009003	
-0.012054	-0.003815	0.000153	-0.011139	
-0.006866	0.000763	0.006561	-0.008392	
-0.009308	-0.001373	0.004120	-0.011444	
-0.006866	0.004425	0.006256	-0.008392	
-0.001984	0.003815	0.008392	-0.004425	
-0.002289	0.000763	-0.004425	-0.001678	
-0.001068	0.004730	-0.006866	0.004425	
-0.005646	0.001678	-0.026398	0.002289	
0.000763	0.003815	-0.011444	0.005035	
-0.004425	0.003204	-0.007172	-0.001678	
-0.001678	0.004120	0.016937	-0.004425	
-0.002289	-0.000763	0.080110	-0.009308	
0.003204	0.006256	0.086823	-0.001678	
-0.009613	0.000153	0.038606	-0.008392	
-0.002899	0.004120	0.029449	-0.002899	
-0.004425	0.000763	-0.011749	-0.005646	
-0.005035	0.005035	-0.049897	-0.001373	
-0.005035	-0.002899	-0.042573	-0.009003	
-0.002899	0.004425	-0.060273	0.000153	
-0.010223	-0.001373	-0.056611	-0.000763	
-0.011139	0.000763	0.097506	-0.000153	
-0.006256	0.000763	0.081635	0.004730	
-0.008087	0.001678	-0.083772	-0.001373	
-0.005646	0.002289	0.019989	-0.001984	
-0.003510	0.001678	0.045625	0.000763	
0.002289	0.003204	-0.043183	0.004120	
-0.005646	-0.001373	-0.021210	-0.001373	
-0.000153	0.001068	0.027313	0.003815	
0.002594	-0.000763	0.057527	0.002899	
0.004730	0.002594	0.073701	0.006561	
0.000763	-0.005035	0.045014	0.005951	
0.001678	0.002594	-0.137484	0.011444	
-0.005646	0.000458	-0.029449	0.002594	
-0.008087	0.002289	0.265049	0.002594	
-0.011749	0.010223	0.143282	0.004120	
-0.007782	0.024261	0.060884	0.006866	
-0.015717	0.024872	0.019989	-0.005646	
-0.016937	0.027924	-0.005646	-0.005341	
-0.024872	0.016327	0.033418	-0.009308	
-0.030975	-0.001373	0.004730	-0.013275	
-0.024261	-0.006866	-0.056611	-0.013580	
-0.021820	-0.013275	-0.120394	-0.009918	
-0.011444	-0.003204	-0.175021	-0.002899	
-0.012360	-0.010834	-0.080720	-0.009308	
-0.001678	-0.012054	0.037385	-0.000153	
-0.002899	-0.012970	-0.162814	-0.008392	
0.007172	-0.000763	-0.043489	-0.005341	
0.008392	-0.000763	0.113375	-0.013580	
0.007172	0.006561	0.298009	-0.016327	
0.001984	0.004425	0.125582	-0.018463	
0.006866	0.010529	-0.036164	-0.019073	
0.004730	0.009308	0.007782	-0.020294	
0.006561	0.014801	0.019073	-0.016022	
0.004730	0.012970	0.034638	-0.016327	
0.008392	0.010223	0.176547	-0.003510	
0.006866	0.014801	0.269321	-0.007172	
0.002289	0.009308	-0.002899	-0.021820	
0.005951	0.008087	-0.255589	-0.019989	
0.004730	0.010223	-0.266880	-0.019379	
0.002594	0.004425	-0.269016	-0.019073	
-0.001984	-0.000763	-0.115511	-0.018158	
0.001984	0.010223	0.073396	-0.015411	
0.002289	0.005951	0.134737	-0.021820	
0.003815	0.008087	0.117647	-0.016022	
-0.002289	0.002289	0.152437	-0.018463	
0.002594	0.012970	0.070039	-0.009613	
-0.005341	0.007172	-0.057527	-0.019684	
-0.005035	0.012970	-0.066072	-0.010529	
-0.011139	0.010223	-0.043183	-0.009613	
-0.011444	0.007782	-0.069123	-0.010223	
-0.009613	0.010834	-0.132296	-0.007782	
-0.010834	0.010529	-0.231785	-0.007172	
-0.012360	0.004120	-0.093232	-0.004120	
-0.009308	0.002899	0.244602	0.002289	
-0.008392	0.005951	0.044404	0.006256	
-0.009613	-0.001984	-0.073701	0.005951	
-0.003815	0.006561	0.100863	0.014801	
-0.010834	-0.003204	0.144197	0.010223	
-0.009613	0.001678	0.252842	0.012054	
-0.009003	-0.003815	0.232090	0.001068	
0.000763	0.003204	0.142061	0.006256	
-0.007172	-0.001678	0.148775	0.005951	
-0.000763	0.003204	0.106356	0.012360	
-0.001678	0.002899	0.027008	0.016632	
-0.001068	0.005951	-0.049592	0.013885	
-0.006256	-0.002289	-0.079194	0.009918	
-0.001984	0.003204	-0.079194	0.023651	
-0.005646	0.006256	-0.072480	0.015106	
-0.007172	0.001678	-0.071870	0.016022	
-0.007782	0.002289	-0.052033	0.013885	
-0.001984	0.002289	-0.023956	0.012360	
0.000763	0.004425	-0.017853	0.006561	
0.003204	0.010223	-0.023956	0.008698	
0.011139	0.010529	0.013885	0.016327	
0.003204	0.004425	-0.020294	0.001068	
0.004425	0.003815	-0.048676	-0.003510	
-0.001068	-0.001068	-0.053559	-0.008392	
0.002289	0.010223	-0.056916	-0.009308	
-0.006866	0.002289	-0.082856	-0.019073	
-0.003815	0.008392	-0.007477	-0.005951	
-0.008087	0.000763	0.037690	-0.015106	
-0.005035	0.004120	0.119478	-0.011749	
-0.005646	-0.002899	0.204318	-0.010223	
-0.002899	-0.001373	0.050202	-0.009918	
-0.003510	0.002899	-0.195773	-0.012970	
-0.007172	-0.002899	-0.211337	-0.014191	
-0.007782	-0.001068	-0.333104	-0.001984	
-0.009003	-0.002899	-0.391088	-0.002289	
-0.004425	-0.003204	0.061494	-0.000763	
-0.007477	-0.009308	0.044404	-0.003204	
-0.005646	-0.005035	0.022736	-0.009003	
-0.013580	-0.008392	0.110323	-0.020599	
-0.007782	-0.001068	-0.027313	-0.016632	
-0.010223	-0.001678	0.047761	-0.021515	
-0.007782	0.000458	0.149691	-0.015106	
-0.012360	-0.003815	0.395056	-0.017242	
-0.007782	-0.002899	0.285192	-0.012970	
-0.011444	-0.004120	0.036469	-0.011139	
-0.004425	0.000153	0.205844	-0.001984	
-0.003204	0.000763	-0.035859	0.006866	
-0.004120	0.001984	-0.000153	0.006866	
-0.006256	-0.001984	0.028839	-0.004425	
-0.012360	-0.003204	0.030060	-0.023346	
-0.006256	0.005646	0.153353	-0.021515	
-0.006256	0.000763	0.213473	-0.021820	
-0.006866	0.000763	0.156099	-0.021820	
-0.009308	0.006256	0.024261	-0.024261	
-0.005035	0.008087	-0.068818	-0.017853	
-0.015106	-0.001678	-0.082856	-0.022430	
-0.005341	0.012970	-0.013580	-0.016022	
-0.010223	0.007172	0.099642	-0.024261	
-0.002289	0.012054	0.030060	-0.014191	
-0.010223	0.004425	-0.181125	-0.017242	
-0.006866	0.009308	-0.294347	-0.014496	
-0.011139	0.003815	-0.348059	-0.011444	
-0.014801	0.002899	-0.119478	-0.005646	
-0.017853	0.001984	0.112154	-0.006866	
-0.018463	0.000153	0.131380	-0.007477	
-0.014191	0.001984	-0.022430	-0.012054	
-0.011139	0.004120	-0.033113	-0.014191	
-0.010223	0.001068	-0.039826	-0.011749	
-0.009613	0.001678	0.103914	-0.002899	
-0.010834	-0.002289	0.156711	0.002289	
-0.015411	-0.006256	0.045625	-0.005646	
-0.011139	-0.006866	-0.080415	-0.008392	
-0.013885	-0.009613	-0.063935	-0.013580	
-0.001984	0.010223	-0.050202	-0.007782	
-0.004120	0.004425	0.081941	-0.016327	
-0.003510	0.009003	0.063020	-0.015717	
-0.008392	0.004425	0.069428	-0.015717	
-0.001068	0.007782	0.099642	-0.010529	
-0.009003	-0.000763	-0.029755	-0.021820	
-0.003510	0.004425	-0.044099	-0.019684	
0.001068	0.000458	-0.033418	-0.021210	
0.006866	0.003204	-0.169833	-0.019684	
0.007172	0.004120	-0.139315	-0.023346	
0.006866	0.002899	-0.086823	-0.028839	
0.010834	0.003204	0.010223	-0.026398	
0.009613	0.004120	0.143892	-0.027924	
0.014191	0.009308	0.212863	-0.025177	
0.010529	0.002594	0.142366	-0.030670	
0.013275	0.005951	-0.078889	-0.026398	
0.008698	0.005646	-0.010223	-0.027924	
0.009613	0.008392	0.009003	-0.027924	
-0.000153	0.002899	-0.062104	-0.030365	
0.005951	0.010529	-0.041963	-0.026093	
0.002594	0.004120	-0.106356	-0.027618	
0.008392	0.009003	-0.106661	-0.017853	
0.006256	0.003204	0.079499	-0.016022	
0.003815	0.006866	0.199740	-0.015411	
0.001984	0.000763	0.050508	-0.019379	
0.001068	0.003204	0.095369	-0.019989	
0.000458	0.006256	0.117037	-0.016632	
-0.006866	0.001068	0.071565	-0.014191	
-0.003510	0.002289	0.041352	-0.001678	
-0.005341	0.002899	0.004730	-0.007782	
-0.003815	0.000763	-0.009308	-0.001373	
-0.013885	0.000458	-0.001068	-0.003510	
-0.013885	0.002289	0.027924	-0.000763	
-0.011444	0.002899	-0.016022	0.003815	
-0.003815	0.001984	0.047761	0.009308	
-0.006256	-0.001678	-0.011139	0.003815	
-0.002289	0.009308	-0.052033	0.002594	
-0.008087	0.002289	-0.054780	0.000153	
-0.009003	0.001678	-0.063630	0.014191	
-0.018158	-0.000763	-0.033113	0.005035	
-0.016022	-0.003510	-0.032502	0.008087	
-0.015411	-0.006866	0.066377	0.005035	
-0.011139	-0.000153	0.043183	0.008087	
-0.013885	-0.003510	0.018768	0.002289	
-0.012970	0.003815	0.057221	0.004120	
-0.010223	0.002289	0.030365	-0.002289	
-0.004120	0.001068	0.032197	0.007172	
-0.004120	0.003815	0.019073	0.012665	
-0.011749	-0.002289	-0.016937	0.000763	
-0.005646	0.008392	-0.041657	0.006866	
-0.015717	0.000763	-0.050202	0.000763	
-0.005646	0.009308	-0.037385	0.008698	
-0.008392	0.009003	0.002594	0.005035	
0.000153	0.014191	0.062409	0.008698	
-0.006866	0.008698	0.078889	0.003204	
-0.003815	0.008392	0.070649	0.005341	
-0.002289	0.001678	0.033113	0.002289	
-0.000763	0.003815	0.038606	0.010834	
-0.005341	0.000458	-0.001678	-0.001678	
0.002594	0.004425	-0.009918	0.003815	
0.002594	-0.001068	-0.022430	-0.002289	
0.002899	-0.000763	-0.051728	-0.005646	
-0.001068	0.005035	-0.043183	-0.007172	
-0.001984	0.002899	-0.027924	-0.007782	
0.000763	0.008698	-0.001678	-0.007477	
-0.002289	0.002289	0.023346	-0.015106	
0.002594	0.005035	0.046845	-0.003815	
-0.014801	0.005035	0.056611	-0.005035	
-0.021210	0.009003	0.060273	0.001068	
-0.023346	-0.000763	0.023956	-0.004120	
-0.014191	0.002289	0.017242	-0.000763	
-0.000763	-0.001678	0.001678	-0.005646	
0.018463	0.001678	0.009918	0.001984	
0.034638	-0.005646	0.001678	-0.001984	
0.045014	-0.001984	-0.002289	0.002289	
0.025787	-0.001678	-0.001068	-0.000153	
0.010223	-0.001068	0.004730	0.005341	
-0.007172	0.002899	0.011749	0.008698	
-0.017548	0.003815	0.010834	0.007782	
-0.016937	0.005951	0.009308	0.014801	
-0.015717	0.005646	0.005341	0.007172	
-0.011139	0.019073	0.018768	0.012054	
-0.021820	0.010223	0.037080	0.005035	
-0.021210	0.017853	0.083161	0.012665	
-0.023956	0.014801	0.035554	0.004425	
-0.017548	0.017853	-0.021515	0.017242	
-0.022125	0.009308	-0.058442	0.012360	
-0.026093	0.010223	-0.105135	0.017548	
-0.035249	0.008392	-0.142672	0.005035	
-0.023346	0.012665	-0.050508	0.012970	
-0.022125	0.005035	0.156404	0.007172	
-0.008087	0.005035	0.176547	-0.000763	
-0.005646	-0.001373	0.046540	-0.004425	
-0.006256	0.000763	0.067903	0.000763	
-0.003815	-0.003815	0.059358	-0.001984	
0.004730	-0.005035	0.011749	0.000458	
0.028839	-0.005341	-0.058137	0.000153	
0.032502	-0.008087	-0.117647	-0.005341	
0.014191	-0.006256	-0.161899	-0.003204	
0.006256	-0.012970	-0.127718	-0.005035	
0.016632	-0.000763	0.001678	0.011139	
0.009918	-0.001373	0.014496	-0.005646	
0.008087	-0.002899	0.009003	-0.010529	
-0.001678	0.001678	0.121920	-0.010223	
-0.006866	0.007782	0.123140	-0.013275	
-0.011139	0.004120	0.038606	-0.018463	
-0.007782	0.009308	-0.174716	-0.005951	
-0.018158	0.001068	0.018463	-0.013885	
-0.021820	0.001068	0.110323	-0.010529	
-0.034028	0.000458	-0.092622	-0.017242	
-0.024261	0.007782	-0.134737	-0.021210	
-0.015106	0.008087	-0.071870	-0.022125	
-0.010834	0.004425	0.144197	-0.028229	
-0.001678	0.010834	0.291600	-0.016022	
0.001068	0.009308	0.072480	-0.021210	
0.010834	0.007172	0.128023	-0.021515	
0.005646	0.003204	0.099337	-0.019989	
0.020599	0.005646	-0.005341	-0.010529	
0.063935	0.004120	-0.063935	-0.009918	
0.070954	0.007782	-0.103914	-0.009613	
0.012665	0.002289	-0.256504	-0.018158	
0.008392	0.009003	-0.200046	-0.011139	
0.030670	0.003204	-0.097200	-0.017853	
0.027008	0.008698	0.026398	-0.006256	
-0.022125	0.000458	0.280003	-0.007172	
-0.059663	-0.005341	0.408790	-0.006256	
-0.073701	-0.005951	0.246738	-0.010529	
-0.061189	-0.009308	0.183871	-0.017548	
-0.033113	-0.007172	0.084992	-0.009918	
-0.026093	-0.002899	0.021210	-0.010223	
-0.009613	0.006561	0.001068	-0.007477	
-0.011139	0.004425	-0.148470	-0.003204	
-0.011749	0.004120	-0.238804	-0.008087	
-0.017853	-0.003204	-0.251621	-0.017548	
-0.018158	0.003204	-0.265965	0.000153	
-0.025787	0.000458	-0.105135	-0.008087	
-0.023041	0.004730	0.145418	-0.012970	
-0.017548	-0.000763	-0.050813	-0.014191	
0.003204	0.001984	-0.036469	-0.010529	
0.010223	-0.001678	0.014801	-0.011444	
0.023651	0.008087	-0.011444	-0.013275	
0.050813	0.003204	0.122225	-0.012360	
0.042573	0.005951	0.123751	-0.011444	
0.003815	0.004120	0.051118	-0.014191	
-0.016937	-0.000153	0.048982	0.003204	
-0.023956	0.001678	-0.002899	0.012360	
-0.024872	0.001678	-0.075532	-0.004120	
-0.014191	0.006256	0.007782	0.008087	
-0.015411	0.007782	-0.010223	0.002594	
-0.011139	0.012970	-0.041657	0.003815	
-0.021820	0.005646	-0.063630	-0.001373	
-0.011749	0.012360	-0.052644	0.004425	
-0.022125	0.010529	-0.049287	0.007172	
-0.022125	0.006256	-0.059968	0.002899	
-0.026398	-0.010834	-0.045930	-0.005341	
-0.027924	-0.001984	0.061494	0.005951	
-0.029755	-0.006256	0.134432	-0.002289	
-0.001678	-0.011139	0.099337	0.006561	
0.059358	-0.004120	0.032502	0.002289	
0.073091	0.000763	-0.106050	0.000153	
0.042268	-0.002899	-0.013275	-0.003204	
0.014191	-0.003510	0.144503	-0.009308	
-0.003204	-0.001068	0.116121	-0.009308	
-0.010223	0.000458	0.012665	-0.010223	
0.008087	0.005035	-0.076447	-0.005035	
0.008698	0.005646	-0.070954	0.001068	
-0.013275	0.009918	-0.095369	0.002594	
-0.034333	0.002899	-0.123446	0.002289	
-0.036469	0.004120	-0.091706	0.008698	
-0.054170	-0.005341	0.205234	-0.001373	
-0.050202	0.002899	0.419471	0.001678	
-0.046540	0.004120	0.250401	-0.004425	
-0.034333	0.003204	0.334630	-0.007782	
-0.022430	-0.011139	0.243076	-0.009918	
-0.001068	-0.001984	0.107576	-0.005035	
-0.002289	-0.001373	0.086823	-0.010529	
0.008698	0.008698	0.022125	0.006561	
0.013885	0.008392	-0.095980	0.002289	
0.022430	0.013275	-0.240330	-0.000153	
0.026398	0.005951	-0.278172	-0.009003	
0.023041	0.002899	-0.216220	-0.013580	
0.034333	0.010223	-0.088349	-0.007782	
0.022125	-0.001068	-0.044404	-0.008392	
0.008087	-0.004120	0.015411	0.001068	
-0.016937	-0.012970	0.062409	-0.017242	
-0.018158	-0.008087	0.014496	-0.017242	
-0.019989	0.002289	-0.056306	-0.007782	
-0.047151	0.007782	-0.035859	-0.004425	
-0.061494	0.007782	-0.037995	-0.005035	
-0.047151	0.008087	-0.039216	-0.001984	
-0.056916	0.002594	-0.030365	-0.007477	
-0.029755	0.004425	-0.004425	-0.007172	
0.014496	0.010529	0.015411	-0.011139	
0.045320	0.011749	0.012054	-0.006256	
0.065156	0.010529	0.005951	-0.008392	
0.091096	0.007172	-0.021210	-0.007477	
0.092622	0.004425	-0.027618	-0.005646	
0.051728	0.008392	-0.051728	-0.005951	
0.011139	0.009308	-0.072480	-0.005951	
-0.021820	0.009003	0.011139	-0.009918	
-0.035554	0.016632	0.145418	-0.007782	
-0.053559	0.008392	0.117952	-0.007172	
-0.025482	0.005951	-0.018463	-0.001984	
0.006561	-0.001068	0.088655	-0.007477	
0.002594	0.007782	-0.022430	0.001068	
0.006866	0.004425	-0.175937	-0.004120	
0.033113	0.005646	-0.151217	-0.000763	
0.001678	-0.002289	0.102999	-0.007172	
-0.029449	-0.001068	0.179904	-0.008087	
-0.045320	-0.005951	-0.056001	-0.015106	
-0.041963	0.000458	0.025482	-0.005035	
-0.042268	-0.002899	0.117342	0.004120	
-0.041352	0.003204	0.168612	0.012970	
-0.059663	0.002594	0.032807	-0.006256	
-0.070039	0.003204	-0.117647	-0.018158	
-0.033418	0.008698	-0.078279	-0.016327	
-0.017853	0.007782	0.087434	-0.015106	
0.003815	0.019989	-0.087739	-0.002899	
0.036775	0.005646	0.002899	-0.009003	
0.097200	0.008392	0.293126	0.001678	
0.050813	0.008698	-0.011444	-0.007782	
-0.001678	0.007782	-0.215610	-0.009308	
-0.021210	0.005951	-0.031587	-0.005035	
0.064546	0.012054	0.130159	0.008087	
0.186923	0.000458	0.095064	-0.009918	
0.140841	-0.002289	-0.199435	-0.016327	
-0.007172	-0.008087	0.083772	-0.021820	
-0.109713	-0.013580	0.034333	-0.021210	
-0.135653	-0.019073	-0.032197	-0.026093	
-0.134127	-0.025177	-0.023346	-0.025787	
-0.108187	-0.023651	0.137178	-0.012360	
-0.059663	-0.016327	0.408179	-0.012970	
-0.008087	-0.006866	0.213168	-0.000153	
-0.015106	-0.004120	0.053254	-0.010223	
-0.008087	0.002289	0.066682	-0.014191	
-0.004425	-0.002289	-0.039216	-0.007782	
0.066682	0.016632	-0.121004	0.005951	
0.153048	0.010834	-0.126497	0.011444	
0.087129	0.014801	-0.034638	0.022430	
-0.023956	0.017853	-0.062104	0.007172	
-0.088044	0.020905	-0.171664	0.009918	
-0.080415	0.016022	-0.171969	0.010529	
-0.051118	0.014801	0.012665	0.006561	
-0.027008	0.012665	-0.023956	0.002289	
-0.023346	0.006256	-0.047761	0.003815	
-0.031587	-0.004120	-0.010223	0.004120	
-0.034944	-0.004120	-0.003815	0.001068	
-0.014801	0.003815	0.019073	0.002289	
0.015717	0.002899	0.016937	-0.000153	
0.028534	-0.005035	0.016937	-0.000153	
0.028534	-0.012360	0.013275	-0.002899	
0.022736	0.005951	0.045320	-0.001984	
0.013275	0.033113	0.078889	-0.015106	
0.020905	0.046235	0.059358	-0.013580	
0.027924	0.022125	0.028839	-0.020294	
0.039216	0.012054	-0.055390	-0.021820	
0.030975	-0.001678	-0.152742	-0.026093	
0.021210	-0.006256	-0.175326	-0.019684	
0.000458	-0.016937	-0.109102	-0.022125	
-0.009308	-0.008087	0.004730	-0.016327	
-0.016937	-0.006256	0.091706	-0.017548	
-0.000763	0.010529	0.043489	-0.005341	
0.012970	0.002899	-0.012970	-0.007477	
0.041047	-0.010223	0.020905	-0.004425	
0.057221	-0.021820	0.070954	0.005951	
0.046540	-0.021515	-0.015411	0.001678	
0.022430	-0.017853	0.052949	-0.000763	
-0.001678	-0.012054	0.075532	-0.001678	
-0.012970	0.006256	0.083772	0.010834	
-0.041352	0.016327	0.077668	0.006561	
-0.061494	0.020294	0.159762	-0.000153	
-0.073701	0.017853	0.048982	-0.005951	
-0.077973	0.030670	-0.173190	-0.006256	
-0.077668	0.024872	-0.003815	-0.013885	
-0.065156	0.022736	0.159762	-0.009918	
-0.057832	0.008392	0.046540	-0.025787	
-0.038911	0.007782	0.068818	-0.028534	
-0.019073	0.000763	0.136263	-0.028229	
0.003204	0.004730	0.032197	-0.030060	
0.035859	0.005951	0.000153	-0.030365	
0.077973	0.012054	-0.156711	-0.032502	
0.065156	0.014191	-0.258945	-0.030670	
0.019684	-0.000763	-0.453040	-0.030670	
-0.034333	-0.020905	-0.436255	-0.028534	
-0.067292	-0.026093	0.291905	-0.017242	
-0.061494	-0.017853	0.566567	-0.009918	
-0.061494	-0.022125	0.310216	-0.027924	
-0.059663	-0.007172	0.333409	-0.028839	
-0.058137	-0.015411	0.106966	-0.033418	
-0.033113	-0.010834	0.045014	-0.025177	
-0.023041	0.006256	-0.009918	-0.017853	
0.000458	0.014801	-0.200046	-0.001678	
0.007782	-0.002899	-0.305333	-0.007477	
0.013275	-0.005341	0.015411	-0.002899	
0.021820	-0.019684	0.137484	-0.005341	
0.029755	-0.021515	0.176852	-0.005341	
-0.001068	-0.011444	0.246433	-0.009308	
0.001068	0.016022	0.054780	-0.012360	
0.013275	0.029755	-0.183871	-0.014191	
0.008087	0.024872	-0.223850	-0.020599	
0.022430	0.005035	-0.105135	-0.013580	
0.036775	-0.000763	0.066987	-0.018463	
0.048676	0.000763	0.137178	-0.011444	
0.036469	-0.014801	0.047761	-0.005646	
0.042268	-0.009003	-0.260471	-0.002899	
0.037080	-0.005035	-0.173495	-0.005035	
0.025177	0.009308	-0.138704	0.006561	
-0.019684	0.018768	-0.271763	0.008087	
-0.037080	0.018463	0.001678	0.005951	
-0.041047	-0.003510	0.203097	-0.009003	
-0.021210	-0.004425	-0.053559	-0.008087	
-0.016022	-0.005646	-0.046845	-0.001068	
-0.022430	-0.003510	0.042268	0.012665	
-0.016022	0.013885	0.008392	0.012970	
0.086213	0.018463	0.067597	0.000153	
0.167392	0.017853	0.095980	-0.012054	
0.141146	0.004120	0.013275	-0.006256	
-0.013885	-0.000763	0.002899	-0.002289	
-0.095675	0.005951	0.019073	-0.005951	
-0.085908	0.014191	0.113680	0.007172	
-0.070344	0.012054	0.202487	0.003815	
-0.041963	0.029144	0.042573	0.006256	
-0.077363	0.046540	-0.015411	0.001678	
-0.099031	0.048982	0.006866	0.012054	
-0.013275	0.021820	0.074922	-0.003204	
0.074006	-0.007172	-0.043794	0.005951	
0.081330	-0.030060	0.172275	0.002289	
0.066072	-0.023956	0.231480	-0.008392	
0.014191	-0.019073	-0.046540	-0.017853	
-0.027618	-0.026398	-0.096285	-0.009613	
-0.053864	-0.027313	-0.320287	-0.004120	
-0.066987	-0.002899	-0.178073	0.008087	
-0.016327	0.004425	-0.143587	0.029449	
0.042878	0.016937	-0.701762	0.035554	
0.053864	0.043183	-0.276951	0.031587	
0.004120	0.036164	0.610209	0.005951	
-0.052339	0.045320	0.516518	0.002594	
-0.082551	0.036164	0.415198	-0.007782	
-0.041352	0.029144	0.239414	0.006561	
0.025787	0.009308	0.214694	0.008087	
0.003204	0.012970	-0.016022	0.009308	
-0.067292	0.018768	0.040132	-0.003510	
-0.124056	0.027924	0.030670	-0.008392	
-0.139925	-0.018158	0.091096	-0.019989	
-0.123446	-0.052339	0.133516	-0.016327	
-0.067597	-0.056001	0.063325	-0.014496	
0.002899	-0.017548	0.030670	-0.019073	
0.066682	-0.011444	0.047456	-0.025177	
0.086823	-0.050202	0.052949	-0.025177	
0.094454	-0.041047	-0.167087	-0.022430	
0.070954	-0.013580	-0.153353	-0.034028	
0.071259	-0.003204	-0.095369	-0.030670	
0.052339	0.001678	-0.152742	-0.035859	
0.019073	0.001678	-0.261082	-0.035554	
0.027008	-0.025177	-0.254063	-0.037690	
0.032197	-0.035859	-0.068513	-0.027618	
-0.013580	-0.033418	0.107576	-0.027924	
-0.029755	0.000763	-0.026398	-0.025177	
-0.043794	0.010529	0.215915	-0.028534	
-0.029755	0.033113	0.593423	-0.017242	
-0.013580	0.029144	0.186007	-0.033418	
-0.011139	0.042573	-0.115511	-0.036469	
-0.001068	0.053559	-0.449988	-0.029755	
-0.014191	0.025177	-0.643167	-0.015411	
-0.030365	0.008087	-0.062715	0.015411	
-0.031587	0.011749	0.352942	0.020294	
0.037995	0.015106	0.168918	-0.001678	
0.040437	-0.004120	-0.034638	-0.024261	
0.008087	0.002289	0.215304	-0.004120	
-0.001678	0.001678	0.200656	-0.000763	
-0.001678	0.012054	0.069123	0.008698	
-0.018158	0.029144	0.023956	0.005035	
-0.005951	0.048066	0.032197	0.010223	
-0.008087	0.050508	-0.032502	0.008698	
-0.040132	0.050202	0.005341	0.020905	
-0.065461	0.050202	0.084687	0.028229	
0.037995	0.043183	0.076753	0.028839	
0.123140	0.020599	-0.050508	0.028229	
0.077363	0.024872	-0.165561	0.032197	
0.012054	0.023346	-0.245518	0.023346	
-0.073701	0.036164	-0.309300	0.028839	
-0.135653	0.061189	-0.200046	0.026093	
-0.170138	0.049287	-0.076447	0.022736	
-0.134127	0.011139	-0.110018	0.021210	
-0.077668	-0.027008	-0.037690	0.017242	
-0.050508	-0.059968	0.305028	0.030365	
-0.053254	-0.102083	0.227207	0.023346	
-0.010834	-0.107576	-0.046540	0.018463	
0.051118	-0.101473	0.073091	0.006866	
0.126802	-0.038301	0.018158	0.012054	
0.115511	-0.024261	0.003204	0.002899	
0.088349	-0.035249	-0.007782	0.003204	
0.077363	-0.036164	-0.029449	-0.003510	
0.063020	-0.041047	-0.076447	-0.001373	
0.049897	-0.043489	-0.103304	-0.000153	
0.042268	0.004425	-0.024261	-0.000153	
0.103304	0.010223	0.097506	-0.003510	
0.116121	0.012054	0.103304	-0.008087	
0.035249	-0.001068	0.033418	-0.011444	
-0.010223	-0.004120	0.020599	-0.015411	
-0.028839	-0.015717	0.032197	-0.014191	
-0.012360	-0.007782	-0.001068	-0.016327	
0.023041	0.024567	0.012665	-0.010529	
-0.003204	0.021820	0.013885	-0.012054	
-0.060273	0.034638	0.017853	-0.000763	
-0.132296	0.042268	0.011749	-0.005951	
-0.155184	0.026703	0.011749	-0.000763	
-0.116121	-0.009918	0.009003	-0.005035	
-0.030975	-0.011139	0.011749	-0.017548	
0.042268	-0.002899	0.017242	-0.012970	
0.063020	0.001678	0.017242	0.002289	
0.043794	0.034638	0.022430	0.000458	
0.027008	0.025787	0.023346	-0.007172	
0.007782	-0.009308	0.024872	0.003815	
-0.002289	-0.001068	0.024567	0.005341	
-0.005035	0.012360	0.028534	-0.002899	
-0.022430	0.013885	0.026093	0.000458	
-0.021820	0.010834	0.024261	-0.003510	
-0.018158	0.001068	0.019379	-0.015717	
-0.005951	-0.009918	0.025482	-0.004120	
-0.030365	-0.026398	0.020599	-0.012054	
-0.039216	-0.040132	0.021515	-0.009918	
-0.032502	-0.041047	0.017242	-0.005646	
-0.012054	0.003204	0.019379	-0.012970	
0.002594	0.019073	0.015411	-0.022430	
0.016327	0.028839	0.021210	-0.014191	
0.015106	0.018158	0.024261	-0.025787	
0.014191	0.023041	0.026703	-0.023346	
0.012970	0.022430	0.022125	-0.019073	
0.007782	0.024872	0.021210	-0.012054	
-0.006256	0.019989	0.017242	-0.015717	
-0.015717	0.013885	0.009003	-0.014191	
-0.011444	0.016022	0.012054	-0.001984	
-0.015717	0.013885	0.002289	0.000763	
-0.016327	0.016022	0.001678	0.003815	
-0.023041	0.016327	0.003815	0.000153	
-0.027618	0.026093	0.005951	-0.000763	
-0.035554	0.013885	0.000458	0.010223	
-0.033113	0.013275	0.005341	0.011444	
-0.061799	0.002289	0.002594	-0.006866	
-0.044099	0.003815	0.005341	-0.017242	
0.032807	-0.009003	0.008698	-0.017242	
0.048066	-0.015106	0.030670	0.006561	
-0.000763	-0.025482	0.024261	-0.005035	
-0.022430	-0.012970	0.018463	-0.012360	
-0.041352	0.000458	0.013275	-0.019379	
-0.053864	0.025177	0.006256	-0.027924	
-0.063325	0.031281	0.009918	-0.028839	
-0.065461	0.019073	0.004730	-0.029755	
-0.056306	0.010223	0.007782	-0.032807	
-0.053864	0.015106	0.005035	-0.034638	
-0.050202	0.013275	0.006256	-0.033723	
-0.045320	-0.011444	0.003204	-0.032197	
-0.032197	-0.022430	0.010834	-0.031587	
-0.019989	-0.010834	0.001678	-0.040742	
-0.003204	0.006561	0.008087	-0.030060	
-0.007782	0.008392	0.008392	-0.033723	
-0.007477	0.016327	0.008698	-0.034028	
